0:28:58.70085	-0.015	-0.068	0.697
0:28:58.7009 	-0.015	-0.036	0.696
0:28:58.70095	-0.016	-0.033	0.696
0:28:58.701  	-0.017	-0.045	0.696
0:28:58.70105	-0.019	-0.022	0.697
0:28:58.7011 	-0.020	-0.022	0.697
0:28:58.70115	-0.021	-0.080	0.697
0:28:58.7012 	-0.022	-0.026	0.697
0:28:58.70125	-0.023	-0.067	0.697
0:28:58.7013 	-0.024	-0.041	0.697
0:28:58.70135	-0.025	-0.073	0.697
0:28:58.7014 	-0.026	-0.060	0.697
0:28:58.70145	-0.027	-0.033	0.697
0:28:58.7015 	-0.028	-0.038	0.697
0:28:58.70155	-0.028	-0.036	0.697
0:28:58.7016 	-0.029	-0.037	0.697
0:28:58.70165	-0.030	-0.044	0.697
0:28:58.7017 	-0.030	-0.043	0.697
0:28:58.70175	-0.030	-0.018	0.697
0:28:58.7018 	-0.031	-0.060	0.697
0:28:58.70185	-0.031	-0.062	0.698
0:28:58.7019 	-0.033	-0.029	0.697
0:28:58.70195	-0.034	-0.025	0.697
0:28:58.702  	-0.034	-0.042	0.697
0:28:58.70205	-0.035	-0.068	0.698
0:28:58.7021 	-0.035	-0.024	0.698
0:28:58.70215	-0.036	-0.011	0.698
0:28:58.7022 	-0.036	-0.099	0.698
0:28:58.70225	-0.036	-0.067	0.698
0:28:58.7023 	-0.037	-0.021	0.698
0:28:58.70235	-0.037	-0.065	0.698
0:28:58.7024 	-0.037	-0.045	0.698
0:28:58.70245	-0.038	-0.045	0.698
0:28:58.7025 	-0.038	-0.010	0.698
0:28:58.70255	-0.038	-0.075	0.698
0:28:58.7026 	-0.039	-0.039	0.698
0:28:58.70265	-0.039	-0.029	0.698
0:28:58.7027 	-0.038	-0.061	0.698
0:28:58.70275	-0.039	-0.051	0.698
0:28:58.7028 	-0.039	-0.058	0.698
0:28:58.70285	-0.040	-0.012	0.698
0:28:58.7029 	-0.040	-0.014	0.698
0:28:58.70295	-0.040	-0.048	0.698
0:28:58.703  	-0.039	-0.028	0.698
0:28:58.70305	-0.040	-0.049	0.698
0:28:58.7031 	-0.040	-0.036	0.698
0:28:58.70315	-0.040	-0.031	0.698
0:28:58.7032 	-0.040	-0.011	0.699
0:28:58.70325	-0.041	-0.047	0.698
0:28:58.7033 	-0.041	-0.069	0.699
0:28:58.70335	-0.041	-0.065	0.699
0:28:58.7034 	-0.041	-0.034	0.698
0:28:58.70345	-0.041	-0.038	0.699
0:28:58.7035 	-0.040	-0.021	0.699
0:28:58.70355	-0.040	-0.027	0.698
0:28:58.7036 	-0.040	-0.017	0.698
0:28:58.70365	-0.040	-0.010	0.699
0:28:58.7037 	-0.040	-0.035	0.699
0:28:58.70375	-0.040	-0.080	0.699
0:28:58.7038 	-0.040	-0.032	0.699
0:28:58.70385	-0.040	-0.039	0.699
0:28:58.7039 	-0.040	-0.033	0.699
0:28:58.70395	-0.040	0.039 	0.699
0:28:58.704  	-0.040	-0.057	0.699
0:28:58.70405	-0.040	0.036 	0.699
0:28:58.7041 	-0.040	0.006 	0.699
0:28:58.70415	-0.040	0.002 	0.699
0:28:58.7042 	-0.040	-0.054	0.699
0:28:58.70425	-0.039	-0.035	0.699
0:28:58.7043 	-0.040	-0.014	0.700
0:28:58.70435	-0.040	-0.038	0.699
0:28:58.7044 	-0.039	-0.062	0.699
0:28:58.70445	-0.039	-0.037	0.699
0:28:58.7045 	-0.039	-0.028	0.700
0:28:58.70455	-0.039	-0.016	0.699
0:28:58.7046 	-0.039	-0.062	0.699
0:28:58.70465	-0.039	-0.055	0.700
0:28:58.7047 	-0.039	-0.077	0.700
0:28:58.70475	-0.038	-0.027	0.700
0:28:58.7048 	-0.038	-0.045	0.699
0:28:58.70485	-0.038	-0.021	0.699
0:28:58.7049 	-0.039	-0.016	0.700
0:28:58.70495	-0.037	-0.038	0.700
0:28:58.705  	-0.037	-0.028	0.699
0:28:58.70505	-0.038	-0.038	0.700
0:28:58.7051 	-0.038	-0.078	0.700
0:28:58.70515	-0.038	-0.062	0.700
0:28:58.7052 	-0.038	-0.058	0.699
0:28:58.70525	-0.038	-0.024	0.700
0:28:58.7053 	-0.038	-0.068	0.700
0:28:58.70535	-0.038	-0.023	0.700
0:28:58.7054 	-0.038	-0.023	0.700
0:28:58.70545	-0.037	-0.027	0.700
0:28:58.7055 	-0.038	-0.041	0.700
0:28:58.70555	-0.038	-0.033	0.700
0:28:58.7056 	-0.038	-0.070	0.700
0:28:58.70565	-0.038	-0.042	0.700
0:28:58.7057 	-0.038	-0.018	0.700
0:28:58.70575	-0.038	-0.063	0.700
0:28:58.7058 	-0.039	-0.048	0.700
0:28:58.70585	-0.038	-0.031	0.700
0:28:58.7059 	-0.038	-0.036	0.700
0:28:58.70595	-0.039	-0.018	0.700
0:28:58.706  	-0.039	-0.018	0.700
0:28:58.70605	-0.039	-0.055	0.700
0:28:58.7061 	-0.039	-0.055	0.700
0:28:58.70615	-0.040	-0.060	0.700
0:28:58.7062 	-0.040	-0.028	0.700
0:28:58.70625	-0.040	-0.065	0.700
0:28:58.7063 	-0.039	-0.043	0.700
0:28:58.70635	-0.039	-0.067	0.700
0:28:58.7064 	-0.040	-0.012	0.700
0:28:58.70645	-0.039	-0.060	0.700
0:28:58.7065 	-0.039	-0.044	0.700
0:28:58.70655	-0.040	0.008 	0.700
0:28:58.7066 	-0.040	-0.033	0.700
0:28:58.70665	-0.040	-0.026	0.700
0:28:58.7067 	-0.041	-0.041	0.700
0:28:58.70675	-0.041	-0.052	0.700
0:28:58.7068 	-0.040	-0.056	0.700
0:28:58.70685	-0.040	-0.058	0.700
0:28:58.7069 	-0.039	-0.039	0.700
0:28:58.70695	-0.040	-0.090	0.700
0:28:58.707  	-0.039	-0.040	0.700
0:28:58.70705	-0.038	-0.041	0.700
0:28:58.7071 	-0.037	-0.031	0.700
0:28:58.70715	-0.037	-0.064	0.700
0:28:58.7072 	-0.036	-0.008	0.700
0:28:58.70725	-0.035	-0.040	0.700
0:28:58.7073 	-0.035	-0.061	0.700
0:28:58.70735	-0.034	-0.059	0.700
0:28:58.7074 	-0.033	-0.052	0.700
0:28:58.70745	-0.032	-0.020	0.700
0:28:58.7075 	-0.031	-0.019	0.700
0:28:58.70755	-0.031	-0.058	0.700
0:28:58.7076 	-0.029	0.001 	0.700
0:28:58.70765	-0.028	-0.050	0.700
0:28:58.7077 	-0.027	-0.026	0.700
0:28:58.70775	-0.027	-0.039	0.700
0:28:58.7078 	-0.025	-0.050	0.699
0:28:58.70785	-0.025	-0.031	0.700
0:28:58.7079 	-0.024	-0.039	0.699
0:28:58.70795	-0.022	-0.046	0.699
0:28:58.708  	-0.022	-0.075	0.700
0:28:58.70805	-0.021	-0.019	0.699
0:28:58.7081 	-0.020	-0.013	0.700
0:28:58.70815	-0.020	-0.026	0.699
0:28:58.7082 	-0.019	-0.046	0.699
0:28:58.70825	-0.018	-0.016	0.699
0:28:58.7083 	-0.017	-0.020	0.699
0:28:58.70835	-0.017	-0.013	0.699
0:28:58.7084 	-0.016	-0.066	0.699
0:28:58.70845	-0.015	-0.010	0.699
0:28:58.7085 	-0.015	-0.045	0.699
0:28:58.70855	-0.014	-0.041	0.699
0:28:58.7086 	-0.014	-0.042	0.699
0:28:58.70865	-0.013	-0.020	0.699
0:28:58.7087 	-0.012	-0.039	0.699
0:28:58.70875	-0.012	-0.052	0.699
0:28:58.7088 	-0.011	-0.049	0.699
0:28:58.70885	-0.012	-0.026	0.699
0:28:58.7089 	-0.011	-0.049	0.699
0:28:58.70895	-0.011	-0.010	0.699
0:28:58.709  	-0.011	-0.033	0.698
0:28:58.70905	-0.012	-0.051	0.699
0:28:58.7091 	-0.012	-0.021	0.699
0:28:58.70915	-0.012	0.005 	0.698
0:28:58.7092 	-0.013	-0.041	0.699
0:28:58.70925	-0.014	0.021 	0.698
0:28:58.7093 	-0.015	-0.014	0.698
0:28:58.70935	-0.016	0.012 	0.698
0:28:58.7094 	-0.017	-0.039	0.698
0:28:58.70945	-0.018	-0.012	0.698
0:28:58.7095 	-0.019	-0.092	0.698
0:28:58.70955	-0.020	-0.027	0.698
0:28:58.7096 	-0.021	-0.023	0.699
0:28:58.70965	-0.022	-0.059	0.698
0:28:58.7097 	-0.023	-0.044	0.698
0:28:58.70975	-0.023	-0.041	0.698
0:28:58.7098 	-0.024	-0.051	0.698
0:28:58.70985	-0.025	-0.020	0.698
0:28:58.7099 	-0.025	-0.032	0.698
0:28:58.70995	-0.027	0.011 	0.698
0:28:58.71   	-0.027	-0.038	0.698
0:28:58.71005	-0.028	-0.046	0.698
0:28:58.7101 	-0.028	-0.041	0.698
0:28:58.71015	-0.030	-0.053	0.698
0:28:58.7102 	-0.029	-0.031	0.698
0:28:58.71025	-0.030	0.003 	0.698
0:28:58.7103 	-0.030	-0.043	0.698
0:28:58.71035	-0.031	-0.047	0.697
0:28:58.7104 	-0.031	-0.056	0.698
0:28:58.71045	-0.032	-0.045	0.698
0:28:58.7105 	-0.032	-0.017	0.698
0:28:58.71055	-0.032	-0.023	0.697
0:28:58.7106 	-0.033	-0.031	0.697
0:28:58.71065	-0.033	-0.083	0.697
0:28:58.7107 	-0.033	-0.004	0.697
0:28:58.71075	-0.034	-0.045	0.697
0:28:58.7108 	-0.033	-0.046	0.698
0:28:58.71085	-0.034	-0.061	0.697
0:28:58.7109 	-0.035	-0.092	0.697
0:28:58.71095	-0.035	-0.035	0.697
0:28:58.711  	-0.035	-0.033	0.697
0:28:58.71105	-0.035	-0.023	0.697
0:28:58.7111 	-0.035	-0.053	0.697
0:28:58.71115	-0.036	-0.013	0.697
0:28:58.7112 	-0.035	-0.024	0.697
0:28:58.71125	-0.036	-0.029	0.697
0:28:58.7113 	-0.036	-0.039	0.697
0:28:58.71135	-0.037	-0.072	0.697
0:28:58.7114 	-0.036	-0.026	0.696
0:28:58.71145	-0.037	-0.041	0.696
0:28:58.7115 	-0.037	-0.072	0.697
0:28:58.71155	-0.037	-0.051	0.697
0:28:58.7116 	-0.037	-0.050	0.697
0:28:58.71165	-0.038	-0.049	0.696
0:28:58.7117 	-0.038	-0.012	0.696
0:28:58.71175	-0.038	-0.031	0.696
0:28:58.7118 	-0.038	-0.034	0.696
0:28:58.71185	-0.038	-0.089	0.696
0:28:58.7119 	-0.039	-0.034	0.696
0:28:58.71195	-0.039	-0.063	0.696
0:28:58.712  	-0.039	-0.037	0.696
0:28:58.71205	-0.039	-0.058	0.696
0:28:58.7121 	-0.040	-0.002	0.696
0:28:58.71215	-0.040	-0.064	0.696
0:28:58.7122 	-0.041	-0.070	0.696
0:28:58.71225	-0.040	-0.042	0.696
0:28:58.7123 	-0.040	-0.057	0.696
0:28:58.71235	-0.040	-0.025	0.696
0:28:58.7124 	-0.040	-0.019	0.696
0:28:58.71245	-0.040	-0.058	0.696
0:28:58.7125 	-0.041	-0.024	0.696
0:28:58.71255	-0.041	-0.007	0.696
0:28:58.7126 	-0.041	-0.029	0.696
0:28:58.71265	-0.042	-0.052	0.696
0:28:58.7127 	-0.042	-0.020	0.696
0:28:58.71275	-0.042	-0.041	0.696
0:28:58.7128 	-0.042	-0.032	0.696
0:28:58.71285	-0.043	-0.002	0.696
0:28:58.7129 	-0.042	-0.023	0.696
0:28:58.71295	-0.043	-0.014	0.696
0:28:58.713  	-0.043	-0.071	0.695
0:28:58.71305	-0.043	-0.037	0.695
0:28:58.7131 	-0.042	-0.030	0.695
0:28:58.71315	-0.043	-0.060	0.695
0:28:58.7132 	-0.042	-0.061	0.696
0:28:58.71325	-0.043	-0.040	0.696
0:28:58.7133 	-0.043	-0.023	0.695
0:28:58.71335	-0.043	-0.048	0.696
0:28:58.7134 	-0.043	-0.031	0.696
0:28:58.71345	-0.042	-0.119	0.696
0:28:58.7135 	-0.042	-0.048	0.696
0:28:58.71355	-0.043	-0.044	0.695
0:28:58.7136 	-0.042	-0.063	0.695
0:28:58.71365	-0.042	-0.030	0.695
0:28:58.7137 	-0.042	-0.053	0.696
0:28:58.71375	-0.042	-0.077	0.696
0:28:58.7138 	-0.042	-0.044	0.695
0:28:58.71385	-0.042	-0.047	0.696
0:28:58.7139 	-0.042	-0.001	0.695
0:28:58.71395	-0.041	-0.009	0.695
0:28:58.714  	-0.042	-0.023	0.696
0:28:58.71405	-0.042	-0.038	0.695
0:28:58.7141 	-0.042	-0.042	0.695
0:28:58.71415	-0.041	-0.038	0.695
0:28:58.7142 	-0.041	-0.048	0.696
0:28:58.71425	-0.041	-0.027	0.695
0:28:58.7143 	-0.041	-0.028	0.696
0:28:58.71435	-0.041	-0.033	0.695
0:28:58.7144 	-0.040	-0.013	0.695
0:28:58.71445	-0.040	-0.006	0.695
0:28:58.7145 	-0.040	-0.040	0.695
0:28:58.71455	-0.040	-0.021	0.695
0:28:58.7146 	-0.040	-0.020	0.695
0:28:58.71465	-0.039	-0.032	0.695
0:28:58.7147 	-0.039	-0.068	0.695
0:28:58.71475	-0.039	-0.001	0.695
0:28:58.7148 	-0.039	-0.057	0.695
0:28:58.71485	-0.039	-0.042	0.695
0:28:58.7149 	-0.039	-0.044	0.695
0:28:58.71495	-0.039	-0.018	0.695
0:28:58.715  	-0.038	-0.044	0.695
0:28:58.71505	-0.038	-0.034	0.695
0:28:58.7151 	-0.038	-0.007	0.695
0:28:58.71515	-0.038	-0.062	0.695
0:28:58.7152 	-0.038	-0.020	0.695
0:28:58.71525	-0.038	-0.033	0.695
0:28:58.7153 	-0.038	-0.058	0.695
0:28:58.71535	-0.037	-0.008	0.695
0:28:58.7154 	-0.037	-0.043	0.695
0:28:58.71545	-0.037	-0.050	0.695
0:28:58.7155 	-0.036	-0.038	0.695
0:28:58.71555	-0.036	0.006 	0.695
0:28:58.7156 	-0.035	0.010 	0.696
0:28:58.71565	-0.034	-0.031	0.695
0:28:58.7157 	-0.033	-0.012	0.695
0:28:58.71575	-0.033	-0.023	0.695
0:28:58.7158 	-0.032	-0.042	0.696
0:28:58.71585	-0.031	-0.058	0.695
0:28:58.7159 	-0.030	-0.024	0.695
0:28:58.71595	-0.029	0.001 	0.696
0:28:58.716  	-0.028	-0.027	0.696
0:28:58.71605	-0.028	-0.038	0.696
0:28:58.7161 	-0.027	-0.020	0.696
0:28:58.71615	-0.025	-0.044	0.696
0:28:58.7162 	-0.025	-0.043	0.695
0:28:58.71625	-0.023	-0.071	0.695
0:28:58.7163 	-0.023	-0.026	0.696
0:28:58.71635	-0.022	-0.058	0.696
0:28:58.7164 	-0.021	-0.065	0.696
0:28:58.71645	-0.021	-0.028	0.696
0:28:58.7165 	-0.019	-0.040	0.696
0:28:58.71655	-0.019	-0.040	0.696
0:28:58.7166 	-0.018	-0.021	0.696
0:28:58.71665	-0.017	-0.062	0.696
0:28:58.7167 	-0.017	-0.072	0.696
0:28:58.71675	-0.016	-0.018	0.696
0:28:58.7168 	-0.016	-0.047	0.696
0:28:58.71685	-0.015	-0.005	0.696
0:28:58.7169 	-0.015	-0.049	0.696
0:28:58.71695	-0.014	-0.065	0.696
0:28:58.717  	-0.014	-0.007	0.696
0:28:58.71705	-0.014	-0.059	0.696
0:28:58.7171 	-0.013	0.000 	0.696
0:28:58.71715	-0.014	-0.036	0.696
0:28:58.7172 	-0.013	-0.052	0.696
0:28:58.71725	-0.013	-0.042	0.697
0:28:58.7173 	-0.013	-0.022	0.696
0:28:58.71735	-0.013	-0.056	0.697
0:28:58.7174 	-0.014	-0.028	0.697
0:28:58.71745	-0.014	-0.070	0.697
0:28:58.7175 	-0.015	-0.037	0.697
0:28:58.71755	-0.015	-0.040	0.697
0:28:58.7176 	-0.016	-0.051	0.697
0:28:58.71765	-0.017	0.002 	0.697
0:28:58.7177 	-0.018	-0.080	0.697
0:28:58.71775	-0.019	-0.012	0.697
0:28:58.7178 	-0.021	-0.060	0.697
0:28:58.71785	-0.022	-0.018	0.697
0:28:58.7179 	-0.022	-0.027	0.697
0:28:58.71795	-0.023	-0.048	0.697
0:28:58.718  	-0.024	-0.028	0.697
0:28:58.71805	-0.025	-0.060	0.697
0:28:58.7181 	-0.026	-0.047	0.697
0:28:58.71815	-0.027	-0.048	0.697
0:28:58.7182 	-0.028	-0.046	0.697
0:28:58.71825	-0.029	-0.077	0.697
0:28:58.7183 	-0.030	-0.042	0.697
0:28:58.71835	-0.030	-0.078	0.698
0:28:58.7184 	-0.031	-0.018	0.697
0:28:58.71845	-0.031	-0.032	0.697
0:28:58.7185 	-0.032	-0.034	0.697
0:28:58.71855	-0.032	-0.065	0.698
0:28:58.7186 	-0.033	-0.022	0.698
0:28:58.71865	-0.033	-0.062	0.698
0:28:58.7187 	-0.033	0.001 	0.698
0:28:58.71875	-0.034	-0.017	0.698
0:28:58.7188 	-0.034	-0.075	0.698
0:28:58.71885	-0.035	-0.077	0.698
0:28:58.7189 	-0.035	-0.026	0.698
0:28:58.71895	-0.036	-0.058	0.698
0:28:58.719  	-0.037	-0.059	0.698
0:28:58.71905	-0.037	-0.055	0.698
0:28:58.7191 	-0.037	-0.024	0.698
0:28:58.71915	-0.037	-0.027	0.698
0:28:58.7192 	-0.038	-0.066	0.698
0:28:58.71925	-0.038	-0.040	0.698
0:28:58.7193 	-0.039	-0.048	0.698
0:28:58.71935	-0.039	-0.018	0.698
0:28:58.7194 	-0.040	-0.024	0.699
0:28:58.71945	-0.039	-0.044	0.699
0:28:58.7195 	-0.040	0.010 	0.698
0:28:58.71955	-0.040	-0.010	0.698
0:28:58.7196 	-0.040	-0.055	0.699
0:28:58.71965	-0.040	-0.040	0.699
0:28:58.7197 	-0.040	-0.044	0.699
0:28:58.71975	-0.041	-0.079	0.699
0:28:58.7198 	-0.041	-0.043	0.699
0:28:58.71985	-0.041	-0.010	0.699
0:28:58.7199 	-0.040	-0.083	0.699
0:28:58.71995	-0.041	-0.059	0.699
0:28:58.72   	-0.041	-0.061	0.699
0:28:58.72005	-0.042	-0.036	0.699
0:28:58.7201 	-0.041	-0.013	0.699
0:28:58.72015	-0.041	-0.043	0.699
0:28:58.7202 	-0.042	-0.006	0.699
0:28:58.72025	-0.042	-0.076	0.699
0:28:58.7203 	-0.042	-0.052	0.699
0:28:58.72035	-0.041	-0.058	0.699
0:28:58.7204 	-0.042	-0.046	0.699
0:28:58.72045	-0.042	-0.036	0.699
0:28:58.7205 	-0.041	-0.014	0.700
0:28:58.72055	-0.042	-0.032	0.700
0:28:58.7206 	-0.041	-0.019	0.699
0:28:58.72065	-0.041	-0.045	0.699
0:28:58.7207 	-0.041	-0.032	0.699
0:28:58.72075	-0.040	-0.002	0.699
0:28:58.7208 	-0.041	-0.022	0.700
0:28:58.72085	-0.040	-0.024	0.699
0:28:58.7209 	-0.041	-0.046	0.700
0:28:58.72095	-0.040	-0.018	0.699
0:28:58.721  	-0.040	-0.071	0.699
0:28:58.72105	-0.040	-0.015	0.699
0:28:58.7211 	-0.040	-0.027	0.700
0:28:58.72115	-0.040	-0.003	0.699
0:28:58.7212 	-0.040	-0.029	0.700
0:28:58.72125	-0.040	-0.039	0.699
0:28:58.7213 	-0.039	-0.060	0.700
0:28:58.72135	-0.039	-0.056	0.700
0:28:58.7214 	-0.039	-0.045	0.700
0:28:58.72145	-0.039	-0.022	0.700
0:28:58.7215 	-0.039	-0.045	0.700
0:28:58.72155	-0.039	-0.050	0.700
0:28:58.7216 	-0.039	-0.035	0.700
0:28:58.72165	-0.039	-0.002	0.700
0:28:58.7217 	-0.039	-0.032	0.700
0:28:58.72175	-0.039	-0.051	0.700
0:28:58.7218 	-0.039	-0.030	0.700
0:28:58.72185	-0.038	-0.043	0.700
0:28:58.7219 	-0.039	-0.066	0.700
0:28:58.72195	-0.039	-0.039	0.700
0:28:58.722  	-0.039	-0.021	0.700
0:28:58.72205	-0.039	-0.001	0.700
0:28:58.7221 	-0.039	-0.058	0.700
0:28:58.72215	-0.038	-0.030	0.700
0:28:58.7222 	-0.038	0.002 	0.700
0:28:58.72225	-0.038	-0.018	0.700
0:28:58.7223 	-0.038	-0.047	0.700
0:28:58.72235	-0.039	0.000 	0.700
0:28:58.7224 	-0.039	-0.015	0.700
0:28:58.72245	-0.039	-0.027	0.700
0:28:58.7225 	-0.039	-0.022	0.700
0:28:58.72255	-0.039	-0.030	0.700
0:28:58.7226 	-0.039	-0.031	0.700
0:28:58.72265	-0.039	-0.023	0.700
0:28:58.7227 	-0.039	-0.045	0.700
0:28:58.72275	-0.040	-0.053	0.700
0:28:58.7228 	-0.040	-0.028	0.700
0:28:58.72285	-0.040	-0.046	0.700
0:28:58.7229 	-0.039	-0.041	0.700
0:28:58.72295	-0.039	-0.055	0.700
0:28:58.723  	-0.040	-0.063	0.700
0:28:58.72305	-0.040	-0.017	0.700
0:28:58.7231 	-0.039	-0.079	0.700
0:28:58.72315	-0.039	-0.043	0.700
0:28:58.7232 	-0.039	-0.058	0.700
0:28:58.72325	-0.039	-0.069	0.700
0:28:58.7233 	-0.040	-0.020	0.700
0:28:58.72335	-0.039	-0.045	0.700
0:28:58.7234 	-0.040	-0.041	0.700
0:28:58.72345	-0.039	-0.052	0.700
0:28:58.7235 	-0.039	-0.067	0.700
0:28:58.72355	-0.039	-0.080	0.700
0:28:58.7236 	-0.039	-0.075	0.700
0:28:58.72365	-0.038	-0.052	0.700
0:28:58.7237 	-0.038	-0.075	0.700
0:28:58.72375	-0.037	-0.032	0.700
0:28:58.7238 	-0.037	-0.028	0.700
0:28:58.72385	-0.037	-0.003	0.700
0:28:58.7239 	-0.035	-0.037	0.700
0:28:58.72395	-0.035	-0.036	0.700
0:28:58.724  	-0.034	-0.027	0.700
0:28:58.72405	-0.033	-0.027	0.700
0:28:58.7241 	-0.033	-0.076	0.700
0:28:58.72415	-0.032	-0.033	0.700
0:28:58.7242 	-0.031	-0.091	0.700
0:28:58.72425	-0.030	-0.040	0.700
0:28:58.7243 	-0.029	-0.050	0.700
0:28:58.72435	-0.028	-0.036	0.700
0:28:58.7244 	-0.027	-0.044	0.700
0:28:58.72445	-0.026	-0.019	0.700
0:28:58.7245 	-0.025	-0.060	0.700
0:28:58.72455	-0.024	-0.068	0.700
0:28:58.7246 	-0.023	-0.029	0.700
0:28:58.72465	-0.022	-0.018	0.700
0:28:58.7247 	-0.021	-0.046	0.700
0:28:58.72475	-0.020	-0.064	0.700
0:28:58.7248 	-0.019	-0.046	0.700
0:28:58.72485	-0.018	0.011 	0.700
0:28:58.7249 	-0.017	-0.061	0.699
0:28:58.72495	-0.017	-0.025	0.700
0:28:58.725  	-0.016	-0.033	0.699
0:28:58.72505	-0.016	-0.055	0.699
0:28:58.7251 	-0.014	-0.069	0.700
0:28:58.72515	-0.014	-0.038	0.699
0:28:58.7252 	-0.013	-0.034	0.699
0:28:58.72525	-0.012	-0.034	0.699
0:28:58.7253 	-0.012	-0.066	0.699
0:28:58.72535	-0.012	-0.031	0.699
0:28:58.7254 	-0.012	-0.006	0.699
0:28:58.72545	-0.011	-0.035	0.699
0:28:58.7255 	-0.011	-0.053	0.699
0:28:58.72555	-0.011	0.009 	0.699
0:28:58.7256 	-0.011	-0.008	0.699
0:28:58.72565	-0.011	-0.032	0.699
0:28:58.7257 	-0.011	-0.037	0.699
0:28:58.72575	-0.011	-0.010	0.699
0:28:58.7258 	-0.012	-0.053	0.699
0:28:58.72585	-0.012	-0.034	0.699
0:28:58.7259 	-0.013	-0.049	0.699
0:28:58.72595	-0.015	-0.087	0.699
0:28:58.726  	-0.016	-0.012	0.699
0:28:58.72605	-0.017	-0.019	0.699
0:28:58.7261 	-0.018	-0.068	0.699
0:28:58.72615	-0.019	-0.029	0.698
0:28:58.7262 	-0.020	-0.018	0.699
0:28:58.72625	-0.021	-0.028	0.699
0:28:58.7263 	-0.021	-0.069	0.698
0:28:58.72635	-0.023	0.010 	0.698
0:28:58.7264 	-0.023	-0.021	0.698
0:28:58.72645	-0.024	-0.041	0.698
0:28:58.7265 	-0.026	-0.040	0.698
0:28:58.72655	-0.026	-0.044	0.698
0:28:58.7266 	-0.027	-0.050	0.698
0:28:58.72665	-0.028	-0.028	0.698
0:28:58.7267 	-0.028	-0.018	0.698
0:28:58.72675	-0.029	-0.021	0.698
0:28:58.7268 	-0.030	-0.017	0.698
0:28:58.72685	-0.030	-0.048	0.698
0:28:58.7269 	-0.031	-0.032	0.698
0:28:58.72695	-0.031	-0.019	0.698
0:28:58.727  	-0.031	-0.023	0.698
0:28:58.72705	-0.032	-0.061	0.698
0:28:58.7271 	-0.032	-0.082	0.698
0:28:58.72715	-0.032	-0.010	0.698
0:28:58.7272 	-0.032	-0.028	0.698
0:28:58.72725	-0.033	-0.051	0.698
0:28:58.7273 	-0.033	0.004 	0.698
0:28:58.72735	-0.034	-0.044	0.698
0:28:58.7274 	-0.034	-0.027	0.698
0:28:58.72745	-0.035	-0.046	0.698
0:28:58.7275 	-0.035	-0.023	0.697
0:28:58.72755	-0.035	-0.008	0.698
0:28:58.7276 	-0.035	-0.024	0.698
0:28:58.72765	-0.035	-0.034	0.697
0:28:58.7277 	-0.036	0.021 	0.697
0:28:58.72775	-0.036	-0.036	0.697
0:28:58.7278 	-0.037	-0.041	0.697
0:28:58.72785	-0.036	-0.039	0.697
0:28:58.7279 	-0.037	-0.068	0.697
0:28:58.72795	-0.037	-0.078	0.697
0:28:58.728  	-0.037	-0.014	0.697
0:28:58.72805	-0.037	-0.041	0.697
0:28:58.7281 	-0.038	-0.064	0.697
0:28:58.72815	-0.038	-0.074	0.697
0:28:58.7282 	-0.038	-0.063	0.697
0:28:58.72825	-0.038	-0.043	0.697
0:28:58.7283 	-0.039	-0.067	0.697
0:28:58.72835	-0.039	-0.035	0.697
0:28:58.7284 	-0.039	-0.095	0.697
0:28:58.72845	-0.039	-0.018	0.697
0:28:58.7285 	-0.040	-0.044	0.697
0:28:58.72855	-0.038	-0.044	0.696
0:28:58.7286 	-0.039	-0.050	0.697
0:28:58.72865	-0.039	-0.038	0.697
0:28:58.7287 	-0.040	-0.039	0.697
0:28:58.72875	-0.039	-0.061	0.696
0:28:58.7288 	-0.040	-0.026	0.696
0:28:58.72885	-0.040	-0.030	0.696
0:28:58.7289 	-0.040	-0.041	0.696
0:28:58.72895	-0.040	-0.034	0.696
0:28:58.729  	-0.041	-0.042	0.696
0:28:58.72905	-0.040	-0.029	0.696
0:28:58.7291 	-0.041	-0.060	0.696
0:28:58.72915	-0.041	-0.043	0.696
0:28:58.7292 	-0.041	-0.049	0.696
0:28:58.72925	-0.042	-0.061	0.697
0:28:58.7293 	-0.042	-0.028	0.696
0:28:58.72935	-0.042	-0.035	0.696
0:28:58.7294 	-0.041	-0.045	0.696
0:28:58.72945	-0.042	-0.070	0.696
0:28:58.7295 	-0.042	-0.035	0.696
0:28:58.72955	-0.042	-0.045	0.696
0:28:58.7296 	-0.042	-0.029	0.696
0:28:58.72965	-0.043	-0.069	0.696
0:28:58.7297 	-0.043	-0.056	0.696
0:28:58.72975	-0.043	-0.018	0.696
0:28:58.7298 	-0.043	-0.026	0.696
0:28:58.72985	-0.043	-0.062	0.696
0:28:58.7299 	-0.043	-0.050	0.696
0:28:58.72995	-0.043	-0.062	0.696
0:28:58.73   	-0.042	-0.050	0.696
0:28:58.73005	-0.043	-0.028	0.696
0:28:58.7301 	-0.042	-0.041	0.696
0:28:58.73015	-0.043	-0.029	0.696
0:28:58.7302 	-0.043	-0.052	0.696
0:28:58.73025	-0.042	-0.052	0.695
0:28:58.7303 	-0.042	-0.055	0.696
0:28:58.73035	-0.042	-0.008	0.696
0:28:58.7304 	-0.042	-0.058	0.696
0:28:58.73045	-0.042	-0.028	0.696
0:28:58.7305 	-0.042	-0.013	0.696
0:28:58.73055	-0.042	-0.020	0.696
0:28:58.7306 	-0.042	-0.021	0.695
0:28:58.73065	-0.042	-0.020	0.696
0:28:58.7307 	-0.042	-0.040	0.695
0:28:58.73075	-0.041	-0.026	0.695
0:28:58.7308 	-0.041	-0.052	0.696
0:28:58.73085	-0.041	-0.004	0.696
0:28:58.7309 	-0.041	-0.029	0.696
0:28:58.73095	-0.041	-0.058	0.696
0:28:58.731  	-0.041	-0.060	0.696
0:28:58.73105	-0.040	-0.053	0.696
0:28:58.7311 	-0.041	-0.049	0.695
0:28:58.73115	-0.040	-0.050	0.695
0:28:58.7312 	-0.040	-0.030	0.696
0:28:58.73125	-0.040	-0.033	0.695
0:28:58.7313 	-0.039	-0.066	0.696
0:28:58.73135	-0.040	-0.058	0.696
0:28:58.7314 	-0.040	-0.015	0.696
0:28:58.73145	-0.039	-0.042	0.695
0:28:58.7315 	-0.039	-0.049	0.695
0:28:58.73155	-0.039	-0.025	0.695
0:28:58.7316 	-0.039	-0.028	0.695
0:28:58.73165	-0.038	-0.023	0.695
0:28:58.7317 	-0.039	-0.034	0.696
0:28:58.73175	-0.038	-0.010	0.695
0:28:58.7318 	-0.038	-0.016	0.695
0:28:58.73185	-0.038	-0.026	0.696
0:28:58.7319 	-0.038	-0.057	0.696
0:28:58.73195	-0.038	-0.033	0.695
0:28:58.732  	-0.038	-0.020	0.695
0:28:58.73205	-0.036	-0.020	0.696
0:28:58.7321 	-0.036	-0.062	0.696
0:28:58.73215	-0.036	-0.020	0.696
0:28:58.7322 	-0.035	-0.032	0.696
0:28:58.73225	-0.035	-0.013	0.696
0:28:58.7323 	-0.034	-0.042	0.696
0:28:58.73235	-0.033	-0.033	0.696
0:28:58.7324 	-0.032	-0.039	0.696
0:28:58.73245	-0.031	-0.044	0.696
0:28:58.7325 	-0.030	-0.033	0.696
0:28:58.73255	-0.029	-0.028	0.696
0:28:58.7326 	-0.028	-0.070	0.696
0:28:58.73265	-0.027	-0.049	0.696
0:28:58.7327 	-0.027	-0.058	0.695
0:28:58.73275	-0.026	-0.042	0.696
0:28:58.7328 	-0.025	-0.072	0.696
0:28:58.73285	-0.024	-0.010	0.696
0:28:58.7329 	-0.024	-0.021	0.696
0:28:58.73295	-0.023	-0.074	0.696
0:28:58.733  	-0.022	-0.040	0.696
0:28:58.73305	-0.021	-0.035	0.696
0:28:58.7331 	-0.021	0.009 	0.696
0:28:58.73315	-0.020	-0.063	0.696
0:28:58.7332 	-0.020	-0.047	0.696
0:28:58.73325	-0.019	-0.054	0.696
0:28:58.7333 	-0.018	-0.066	0.696
0:28:58.73335	-0.016	-0.076	0.696
0:28:58.7334 	-0.017	-0.053	0.696
0:28:58.73345	-0.016	-0.016	0.697
0:28:58.7335 	-0.015	-0.038	0.696
0:28:58.73355	-0.015	-0.031	0.696
0:28:58.7336 	-0.014	-0.008	0.697
0:28:58.73365	-0.014	-0.029	0.696
0:28:58.7337 	-0.014	-0.031	0.696
0:28:58.73375	-0.013	-0.050	0.696
0:28:58.7338 	-0.013	-0.048	0.697
0:28:58.73385	-0.013	-0.040	0.696
0:28:58.7339 	-0.013	-0.016	0.697
0:28:58.73395	-0.013	-0.033	0.697
0:28:58.734  	-0.013	-0.037	0.697
0:28:58.73405	-0.014	-0.040	0.697
0:28:58.7341 	-0.014	-0.044	0.697
0:28:58.73415	-0.014	-0.028	0.697
0:28:58.7342 	-0.014	-0.059	0.697
0:28:58.73425	-0.015	-0.041	0.697
0:28:58.7343 	-0.017	-0.027	0.697
0:28:58.73435	-0.018	-0.037	0.697
0:28:58.7344 	-0.019	-0.045	0.697
0:28:58.73445	-0.020	-0.026	0.697
0:28:58.7345 	-0.021	-0.033	0.697
0:28:58.73455	-0.023	-0.059	0.698
0:28:58.7346 	-0.024	-0.040	0.698
0:28:58.73465	-0.025	-0.009	0.698
0:28:58.7347 	-0.025	-0.055	0.697
0:28:58.73475	-0.026	-0.011	0.697
0:28:58.7348 	-0.027	-0.044	0.698
0:28:58.73485	-0.028	-0.071	0.698
0:28:58.7349 	-0.029	-0.040	0.698
0:28:58.73495	-0.031	-0.066	0.698
0:28:58.735  	-0.031	-0.020	0.698
0:28:58.73505	-0.032	-0.039	0.698
0:28:58.7351 	-0.032	-0.031	0.698
0:28:58.73515	-0.032	-0.037	0.698
0:28:58.7352 	-0.032	-0.037	0.698
0:28:58.73525	-0.034	0.009 	0.698
0:28:58.7353 	-0.035	-0.048	0.698
0:28:58.73535	-0.035	-0.026	0.698
0:28:58.7354 	-0.036	-0.052	0.698
0:28:58.73545	-0.036	-0.057	0.698
0:28:58.7355 	-0.036	-0.039	0.698
0:28:58.73555	-0.036	-0.058	0.698
0:28:58.7356 	-0.037	-0.022	0.698
0:28:58.73565	-0.037	-0.031	0.698
0:28:58.7357 	-0.037	-0.022	0.698
0:28:58.73575	-0.038	-0.007	0.698
0:28:58.7358 	-0.038	-0.024	0.698
0:28:58.73585	-0.038	-0.049	0.698
0:28:58.7359 	-0.039	-0.049	0.698
0:28:58.73595	-0.039	-0.050	0.698
0:28:58.736  	-0.040	-0.005	0.699
0:28:58.73605	-0.039	-0.052	0.699
0:28:58.7361 	-0.040	-0.056	0.699
0:28:58.73615	-0.040	-0.046	0.699
0:28:58.7362 	-0.040	0.000 	0.699
0:28:58.73625	-0.040	-0.044	0.699
0:28:58.7363 	-0.040	-0.067	0.699
0:28:58.73635	-0.040	-0.062	0.699
0:28:58.7364 	-0.041	-0.015	0.699
0:28:58.73645	-0.040	-0.040	0.699
0:28:58.7365 	-0.041	-0.054	0.699
0:28:58.73655	-0.041	-0.040	0.699
0:28:58.7366 	-0.041	-0.029	0.699
0:28:58.73665	-0.041	-0.082	0.699
0:28:58.7367 	-0.041	-0.047	0.699
0:28:58.73675	-0.041	-0.029	0.699
0:28:58.7368 	-0.042	-0.026	0.699
0:28:58.73685	-0.042	-0.049	0.700
0:28:58.7369 	-0.042	-0.011	0.699
0:28:58.73695	-0.041	-0.017	0.699
0:28:58.737  	-0.041	0.000 	0.699
0:28:58.73705	-0.041	-0.054	0.699
0:28:58.7371 	-0.040	-0.054	0.700
0:28:58.73715	-0.041	-0.018	0.699
0:28:58.7372 	-0.040	-0.014	0.699
0:28:58.73725	-0.040	-0.033	0.700
0:28:58.7373 	-0.040	-0.030	0.699
0:28:58.73735	-0.040	-0.054	0.700
0:28:58.7374 	-0.040	-0.075	0.700
0:28:58.73745	-0.040	-0.037	0.700
0:28:58.7375 	-0.040	-0.041	0.700
0:28:58.73755	-0.040	-0.024	0.700
0:28:58.7376 	-0.040	-0.065	0.699
0:28:58.73765	-0.040	-0.005	0.700
0:28:58.7377 	-0.040	-0.003	0.700
0:28:58.73775	-0.040	-0.058	0.700
0:28:58.7378 	-0.040	-0.046	0.700
0:28:58.73785	-0.040	-0.030	0.700
0:28:58.7379 	-0.040	-0.051	0.700
0:28:58.73795	-0.040	-0.073	0.700
0:28:58.738  	-0.040	0.008 	0.700
0:28:58.73805	-0.040	-0.004	0.700
0:28:58.7381 	-0.039	-0.062	0.700
0:28:58.73815	-0.040	-0.035	0.700
0:28:58.7382 	-0.039	-0.033	0.700
0:28:58.73825	-0.039	-0.045	0.700
0:28:58.7383 	-0.039	-0.009	0.700
0:28:58.73835	-0.039	-0.019	0.700
0:28:58.7384 	-0.040	-0.020	0.700
0:28:58.73845	-0.040	-0.059	0.700
0:28:58.7385 	-0.040	-0.049	0.700
0:28:58.73855	-0.039	-0.076	0.701
0:28:58.7386 	-0.040	-0.029	0.700
0:28:58.73865	-0.039	-0.035	0.700
0:28:58.7387 	-0.040	-0.023	0.700
0:28:58.73875	-0.040	-0.058	0.700
0:28:58.7388 	-0.039	-0.042	0.701
0:28:58.73885	-0.039	-0.028	0.700
0:28:58.7389 	-0.040	-0.053	0.700
0:28:58.73895	-0.040	-0.062	0.700
0:28:58.739  	-0.040	-0.051	0.700
0:28:58.73905	-0.039	-0.050	0.700
0:28:58.7391 	-0.039	-0.046	0.700
0:28:58.73915	-0.039	-0.031	0.700
0:28:58.7392 	-0.039	-0.019	0.700
0:28:58.73925	-0.039	-0.023	0.700
0:28:58.7393 	-0.039	-0.027	0.700
0:28:58.73935	-0.039	-0.005	0.700
0:28:58.7394 	-0.039	-0.009	0.700
0:28:58.73945	-0.040	-0.008	0.700
0:28:58.7395 	-0.039	-0.044	0.700
0:28:58.73955	-0.039	-0.036	0.700
0:28:58.7396 	-0.039	0.000 	0.700
0:28:58.73965	-0.040	-0.047	0.701
0:28:58.7397 	-0.040	-0.006	0.700
0:28:58.73975	-0.040	-0.031	0.700
0:28:58.7398 	-0.040	-0.068	0.700
0:28:58.73985	-0.040	-0.047	0.700
0:28:58.7399 	-0.040	-0.059	0.700
0:28:58.73995	-0.040	-0.053	0.700
0:28:58.74   	-0.040	-0.013	0.701
0:28:58.74005	-0.040	-0.043	0.700
0:28:58.7401 	-0.040	-0.053	0.700
0:28:58.74015	-0.039	-0.029	0.701
0:28:58.7402 	-0.040	-0.067	0.700
0:28:58.74025	-0.040	-0.010	0.700
0:28:58.7403 	-0.040	-0.060	0.701
0:28:58.74035	-0.038	-0.033	0.700
0:28:58.7404 	-0.038	-0.034	0.700
0:28:58.74045	-0.038	-0.059	0.700
0:28:58.7405 	-0.037	-0.053	0.700
0:28:58.74055	-0.036	-0.072	0.700
0:28:58.7406 	-0.036	-0.039	0.700
0:28:58.74065	-0.035	-0.021	0.700
0:28:58.7407 	-0.033	-0.033	0.700
0:28:58.74075	-0.033	-0.068	0.700
0:28:58.7408 	-0.032	-0.010	0.700
0:28:58.74085	-0.031	-0.042	0.700
0:28:58.7409 	-0.030	-0.058	0.700
0:28:58.74095	-0.029	-0.034	0.700
0:28:58.741  	-0.029	-0.036	0.700
0:28:58.74105	-0.027	-0.099	0.700
0:28:58.7411 	-0.027	-0.032	0.700
0:28:58.74115	-0.025	-0.049	0.700
0:28:58.7412 	-0.025	-0.041	0.700
0:28:58.74125	-0.024	-0.022	0.700
0:28:58.7413 	-0.023	-0.052	0.700
0:28:58.74135	-0.022	-0.038	0.700
0:28:58.7414 	-0.021	-0.026	0.700
0:28:58.74145	-0.020	-0.038	0.700
0:28:58.7415 	-0.019	-0.035	0.700
0:28:58.74155	-0.019	-0.044	0.700
0:28:58.7416 	-0.017	-0.014	0.700
0:28:58.74165	-0.016	-0.059	0.700
0:28:58.7417 	-0.016	-0.057	0.700
0:28:58.74175	-0.015	-0.041	0.700
0:28:58.7418 	-0.015	-0.070	0.700
0:28:58.74185	-0.014	-0.030	0.700
0:28:58.7419 	-0.013	-0.032	0.699
0:28:58.74195	-0.013	-0.018	0.699
0:28:58.742  	-0.012	-0.028	0.700
0:28:58.74205	-0.012	-0.050	0.699
0:28:58.7421 	-0.012	-0.031	0.699
0:28:58.74215	-0.012	-0.058	0.700
0:28:58.7422 	-0.011	-0.047	0.699
0:28:58.74225	-0.011	-0.038	0.699
0:28:58.7423 	-0.012	-0.040	0.700
0:28:58.74235	-0.011	-0.042	0.699
0:28:58.7424 	-0.011	-0.055	0.699
0:28:58.74245	-0.013	-0.064	0.699
0:28:58.7425 	-0.012	-0.018	0.699
0:28:58.74255	-0.013	-0.059	0.699
0:28:58.7426 	-0.015	-0.058	0.699
0:28:58.74265	-0.016	-0.059	0.699
0:28:58.7427 	-0.017	-0.040	0.699
0:28:58.74275	-0.018	-0.044	0.698
0:28:58.7428 	-0.020	-0.026	0.699
0:28:58.74285	-0.020	-0.073	0.699
0:28:58.7429 	-0.022	-0.017	0.699
0:28:58.74295	-0.023	0.033 	0.699
0:28:58.743  	-0.023	-0.067	0.699
0:28:58.74305	-0.024	-0.030	0.699
0:28:58.7431 	-0.025	-0.035	0.699
0:28:58.74315	-0.026	-0.042	0.698
0:28:58.7432 	-0.027	-0.024	0.698
0:28:58.74325	-0.028	-0.052	0.698
0:28:58.7433 	-0.029	-0.029	0.699
0:28:58.74335	-0.028	-0.030	0.698
0:28:58.7434 	-0.029	-0.032	0.699
0:28:58.74345	-0.030	-0.001	0.698
0:28:58.7435 	-0.030	-0.016	0.699
0:28:58.74355	-0.030	-0.025	0.698
0:28:58.7436 	-0.031	-0.027	0.698
0:28:58.74365	-0.031	-0.057	0.698
0:28:58.7437 	-0.031	-0.046	0.698
0:28:58.74375	-0.032	-0.013	0.698
0:28:58.7438 	-0.032	-0.026	0.698
0:28:58.74385	-0.033	-0.015	0.698
0:28:58.7439 	-0.032	-0.048	0.698
0:28:58.74395	-0.034	-0.006	0.698
0:28:58.744  	-0.034	-0.066	0.698
0:28:58.74405	-0.034	-0.073	0.698
0:28:58.7441 	-0.035	-0.031	0.698
0:28:58.74415	-0.035	-0.073	0.697
0:28:58.7442 	-0.034	-0.029	0.697
0:28:58.74425	-0.035	-0.043	0.697
0:28:58.7443 	-0.035	-0.054	0.698
0:28:58.74435	-0.035	-0.041	0.697
0:28:58.7444 	-0.035	-0.011	0.698
0:28:58.74445	-0.035	-0.020	0.698
0:28:58.7445 	-0.035	-0.044	0.697
0:28:58.74455	-0.035	-0.033	0.697
0:28:58.7446 	-0.035	-0.026	0.697
0:28:58.74465	-0.036	-0.055	0.697
0:28:58.7447 	-0.037	-0.034	0.697
0:28:58.74475	-0.037	-0.048	0.697
0:28:58.7448 	-0.037	-0.059	0.697
0:28:58.74485	-0.038	-0.069	0.697
0:28:58.7449 	-0.038	-0.042	0.697
0:28:58.74495	-0.038	-0.044	0.697
0:28:58.745  	-0.038	-0.049	0.697
0:28:58.74505	-0.038	-0.059	0.697
0:28:58.7451 	-0.038	-0.049	0.697
0:28:58.74515	-0.039	-0.048	0.697
0:28:58.7452 	-0.039	-0.052	0.697
0:28:58.74525	-0.038	-0.056	0.697
0:28:58.7453 	-0.039	-0.055	0.697
0:28:58.74535	-0.039	-0.008	0.697
0:28:58.7454 	-0.040	-0.048	0.697
0:28:58.74545	-0.040	-0.035	0.697
0:28:58.7455 	-0.040	-0.020	0.697
0:28:58.74555	-0.040	-0.040	0.697
0:28:58.7456 	-0.039	-0.021	0.697
0:28:58.74565	-0.040	-0.094	0.697
0:28:58.7457 	-0.040	-0.025	0.697
0:28:58.74575	-0.041	-0.036	0.697
0:28:58.7458 	-0.041	-0.057	0.696
0:28:58.74585	-0.041	-0.034	0.696
0:28:58.7459 	-0.041	-0.034	0.696
0:28:58.74595	-0.042	-0.054	0.696
0:28:58.746  	-0.042	-0.018	0.696
0:28:58.74605	-0.042	-0.054	0.696
0:28:58.7461 	-0.042	-0.031	0.696
0:28:58.74615	-0.043	-0.062	0.696
0:28:58.7462 	-0.042	-0.042	0.696
0:28:58.74625	-0.043	-0.065	0.696
0:28:58.7463 	-0.043	-0.022	0.696
0:28:58.74635	-0.043	-0.063	0.696
0:28:58.7464 	-0.043	-0.017	0.696
0:28:58.74645	-0.042	-0.028	0.696
0:28:58.7465 	-0.043	-0.032	0.696
0:28:58.74655	-0.042	-0.045	0.696
0:28:58.7466 	-0.043	-0.043	0.696
0:28:58.74665	-0.042	-0.023	0.696
0:28:58.7467 	-0.042	-0.057	0.696
0:28:58.74675	-0.042	-0.063	0.696
0:28:58.7468 	-0.042	-0.062	0.696
0:28:58.74685	-0.042	-0.048	0.696
0:28:58.7469 	-0.042	-0.058	0.696
0:28:58.74695	-0.043	-0.038	0.696
0:28:58.747  	-0.042	-0.011	0.696
0:28:58.74705	-0.042	-0.048	0.696
0:28:58.7471 	-0.042	-0.041	0.696
0:28:58.74715	-0.042	-0.009	0.696
0:28:58.7472 	-0.042	-0.014	0.696
0:28:58.74725	-0.042	-0.033	0.696
0:28:58.7473 	-0.042	-0.032	0.696
0:28:58.74735	-0.042	-0.040	0.695
0:28:58.7474 	-0.042	-0.059	0.696
0:28:58.74745	-0.042	-0.030	0.696
0:28:58.7475 	-0.042	-0.061	0.695
0:28:58.74755	-0.041	-0.102	0.696
0:28:58.7476 	-0.041	-0.041	0.696
0:28:58.74765	-0.042	-0.051	0.696
0:28:58.7477 	-0.041	-0.045	0.696
0:28:58.74775	-0.040	-0.050	0.696
0:28:58.7478 	-0.040	-0.030	0.696
0:28:58.74785	-0.040	-0.029	0.696
0:28:58.7479 	-0.040	-0.036	0.696
0:28:58.74795	-0.040	-0.035	0.696
0:28:58.748  	-0.041	-0.034	0.696
0:28:58.74805	-0.040	-0.043	0.696
0:28:58.7481 	-0.041	-0.022	0.696
0:28:58.74815	-0.040	-0.036	0.696
0:28:58.7482 	-0.040	-0.036	0.696
0:28:58.74825	-0.040	-0.055	0.696
0:28:58.7483 	-0.039	-0.062	0.695
0:28:58.74835	-0.039	-0.036	0.696
0:28:58.7484 	-0.039	-0.061	0.696
0:28:58.74845	-0.038	-0.078	0.696
0:28:58.7485 	-0.039	-0.025	0.696
0:28:58.74855	-0.039	-0.058	0.696
0:28:58.7486 	-0.037	-0.030	0.696
0:28:58.74865	-0.038	-0.035	0.696
0:28:58.7487 	-0.037	-0.021	0.696
0:28:58.74875	-0.037	-0.029	0.696
0:28:58.7488 	-0.036	-0.019	0.695
0:28:58.74885	-0.036	-0.029	0.696
0:28:58.7489 	-0.035	-0.034	0.696
0:28:58.74895	-0.034	-0.035	0.696
0:28:58.749  	-0.033	-0.046	0.696
0:28:58.74905	-0.033	-0.040	0.696
0:28:58.7491 	-0.031	-0.052	0.696
0:28:58.74915	-0.030	-0.066	0.696
0:28:58.7492 	-0.030	-0.019	0.696
0:28:58.74925	-0.029	-0.028	0.696
0:28:58.7493 	-0.029	-0.043	0.696
0:28:58.74935	-0.028	0.007 	0.696
0:28:58.7494 	-0.027	0.004 	0.696
0:28:58.74945	-0.026	-0.041	0.696
0:28:58.7495 	-0.025	-0.061	0.696
0:28:58.74955	-0.024	-0.049	0.696
0:28:58.7496 	-0.023	-0.039	0.696
0:28:58.74965	-0.023	-0.051	0.696
0:28:58.7497 	-0.022	-0.012	0.697
0:28:58.74975	-0.021	-0.037	0.696
0:28:58.7498 	-0.021	-0.043	0.696
0:28:58.74985	-0.020	-0.041	0.696
0:28:58.7499 	-0.019	-0.042	0.697
0:28:58.74995	-0.018	-0.032	0.696
0:28:58.75   	-0.018	-0.044	0.696
0:28:58.75005	-0.017	-0.047	0.697
0:28:58.7501 	-0.017	-0.070	0.696
0:28:58.75015	-0.016	-0.038	0.696
0:28:58.7502 	-0.016	-0.054	0.697
0:28:58.75025	-0.015	-0.034	0.697
0:28:58.7503 	-0.014	-0.030	0.696
0:28:58.75035	-0.014	-0.080	0.697
0:28:58.7504 	-0.013	-0.032	0.697
0:28:58.75045	-0.014	-0.015	0.697
0:28:58.7505 	-0.013	-0.072	0.697
0:28:58.75055	-0.013	-0.027	0.697
0:28:58.7506 	-0.013	-0.067	0.697
0:28:58.75065	-0.013	-0.046	0.697
0:28:58.7507 	-0.013	-0.072	0.697
0:28:58.75075	-0.014	-0.034	0.697
0:28:58.7508 	-0.014	-0.046	0.697
0:28:58.75085	-0.014	-0.039	0.697
0:28:58.7509 	-0.016	-0.038	0.697
0:28:58.75095	-0.017	-0.029	0.697
0:28:58.751  	-0.018	-0.033	0.698
0:28:58.75105	-0.020	-0.058	0.697
0:28:58.7511 	-0.020	-0.048	0.698
0:28:58.75115	-0.022	-0.058	0.697
0:28:58.7512 	-0.023	-0.028	0.697
0:28:58.75125	-0.024	-0.057	0.697
0:28:58.7513 	-0.024	-0.100	0.698
0:28:58.75135	-0.026	-0.019	0.698
0:28:58.7514 	-0.026	-0.028	0.698
0:28:58.75145	-0.027	-0.065	0.698
0:28:58.7515 	-0.029	-0.033	0.698
0:28:58.75155	-0.029	-0.012	0.698
0:28:58.7516 	-0.030	-0.028	0.698
0:28:58.75165	-0.030	-0.052	0.698
0:28:58.7517 	-0.031	-0.002	0.698
0:28:58.75175	-0.032	-0.092	0.698
0:28:58.7518 	-0.032	-0.041	0.698
0:28:58.75185	-0.032	-0.006	0.698
0:28:58.7519 	-0.033	-0.050	0.698
0:28:58.75195	-0.035	-0.064	0.698
0:28:58.752  	-0.035	-0.025	0.698
0:28:58.75205	-0.036	-0.043	0.698
0:28:58.7521 	-0.036	-0.065	0.698
0:28:58.75215	-0.037	-0.046	0.698
0:28:58.7522 	-0.037	-0.052	0.698
0:28:58.75225	-0.037	-0.041	0.698
0:28:58.7523 	-0.037	-0.058	0.698
0:28:58.75235	-0.038	-0.046	0.698
0:28:58.7524 	-0.037	-0.087	0.698
0:28:58.75245	-0.038	-0.029	0.698
0:28:58.7525 	-0.039	-0.070	0.698
0:28:58.75255	-0.040	-0.085	0.698
0:28:58.7526 	-0.040	-0.029	0.699
0:28:58.75265	-0.040	-0.083	0.699
0:28:58.7527 	-0.041	-0.079	0.699
0:28:58.75275	-0.041	-0.046	0.699
0:28:58.7528 	-0.041	-0.051	0.699
0:28:58.75285	-0.041	-0.062	0.699
0:28:58.7529 	-0.040	0.003 	0.699
0:28:58.75295	-0.041	-0.043	0.699
0:28:58.753  	-0.041	-0.028	0.699
0:28:58.75305	-0.042	-0.033	0.699
0:28:58.7531 	-0.041	-0.067	0.699
0:28:58.75315	-0.041	-0.041	0.699
0:28:58.7532 	-0.041	-0.064	0.700
0:28:58.75325	-0.042	-0.049	0.700
0:28:58.7533 	-0.041	-0.051	0.699
0:28:58.75335	-0.041	-0.023	0.699
0:28:58.7534 	-0.042	-0.021	0.699
0:28:58.75345	-0.042	-0.017	0.699
0:28:58.7535 	-0.042	-0.009	0.699
0:28:58.75355	-0.042	-0.031	0.699
0:28:58.7536 	-0.042	-0.047	0.699
0:28:58.75365	-0.041	-0.047	0.700
0:28:58.7537 	-0.042	-0.034	0.700
0:28:58.75375	-0.042	-0.058	0.700
0:28:58.7538 	-0.042	-0.050	0.699
0:28:58.75385	-0.042	-0.060	0.700
0:28:58.7539 	-0.042	-0.030	0.700
0:28:58.75395	-0.041	-0.064	0.700
0:28:58.754  	-0.041	-0.070	0.700
0:28:58.75405	-0.041	-0.028	0.700
0:28:58.7541 	-0.041	-0.030	0.700
0:28:58.75415	-0.042	-0.051	0.700
0:28:58.7542 	-0.041	-0.031	0.700
0:28:58.75425	-0.041	-0.035	0.700
0:28:58.7543 	-0.041	-0.063	0.700
0:28:58.75435	-0.041	-0.001	0.700
0:28:58.7544 	-0.041	-0.070	0.700
0:28:58.75445	-0.040	-0.037	0.700
0:28:58.7545 	-0.040	-0.016	0.700
0:28:58.75455	-0.040	-0.041	0.700
0:28:58.7546 	-0.040	-0.020	0.700
0:28:58.75465	-0.040	-0.034	0.700
0:28:58.7547 	-0.040	-0.049	0.700
0:28:58.75475	-0.040	-0.025	0.700
0:28:58.7548 	-0.039	-0.026	0.700
0:28:58.75485	-0.039	-0.008	0.700
0:28:58.7549 	-0.039	-0.030	0.700
0:28:58.75495	-0.039	-0.048	0.700
0:28:58.755  	-0.039	-0.031	0.700
0:28:58.75505	-0.039	-0.064	0.700
0:28:58.7551 	-0.039	-0.040	0.700
0:28:58.75515	-0.039	-0.053	0.700
0:28:58.7552 	-0.039	-0.040	0.700
0:28:58.75525	-0.039	-0.061	0.700
0:28:58.7553 	-0.038	-0.049	0.700
0:28:58.75535	-0.039	-0.052	0.701
0:28:58.7554 	-0.039	-0.047	0.700
0:28:58.75545	-0.038	-0.018	0.701
0:28:58.7555 	-0.039	-0.034	0.700
0:28:58.75555	-0.039	-0.007	0.700
0:28:58.7556 	-0.039	-0.093	0.700
0:28:58.75565	-0.039	0.020 	0.701
0:28:58.7557 	-0.039	-0.065	0.700
0:28:58.75575	-0.039	-0.059	0.700
0:28:58.7558 	-0.039	-0.066	0.701
0:28:58.75585	-0.039	-0.070	0.701
0:28:58.7559 	-0.039	-0.072	0.700
0:28:58.75595	-0.039	-0.024	0.701
0:28:58.756  	-0.038	-0.003	0.700
0:28:58.75605	-0.039	-0.018	0.701
0:28:58.7561 	-0.039	-0.080	0.700
0:28:58.75615	-0.039	-0.027	0.701
0:28:58.7562 	-0.039	-0.067	0.700
0:28:58.75625	-0.039	-0.044	0.701
0:28:58.7563 	-0.039	-0.053	0.701
0:28:58.75635	-0.039	-0.046	0.700
0:28:58.7564 	-0.039	-0.049	0.701
0:28:58.75645	-0.039	-0.063	0.700
0:28:58.7565 	-0.039	-0.017	0.701
0:28:58.75655	-0.040	-0.036	0.701
0:28:58.7566 	-0.039	-0.048	0.701
0:28:58.75665	-0.040	-0.042	0.700
0:28:58.7567 	-0.040	-0.033	0.700
0:28:58.75675	-0.040	-0.100	0.700
0:28:58.7568 	-0.040	-0.038	0.700
0:28:58.75685	-0.040	-0.012	0.700
0:28:58.7569 	-0.039	-0.067	0.701
0:28:58.75695	-0.039	-0.035	0.700
0:28:58.757  	-0.038	-0.096	0.700
0:28:58.75705	-0.038	-0.049	0.701
0:28:58.7571 	-0.037	-0.018	0.701
0:28:58.75715	-0.036	-0.034	0.701
0:28:58.7572 	-0.035	-0.037	0.700
0:28:58.75725	-0.035	-0.056	0.700
0:28:58.7573 	-0.034	-0.038	0.700
0:28:58.75735	-0.034	-0.044	0.700
0:28:58.7574 	-0.033	-0.084	0.701
0:28:58.75745	-0.032	-0.041	0.700
0:28:58.7575 	-0.031	-0.022	0.700
0:28:58.75755	-0.030	-0.050	0.700
0:28:58.7576 	-0.029	-0.068	0.700
0:28:58.75765	-0.028	-0.034	0.700
0:28:58.7577 	-0.028	-0.025	0.700
0:28:58.75775	-0.028	-0.061	0.700
0:28:58.7578 	-0.026	-0.029	0.700
0:28:58.75785	-0.025	-0.017	0.700
0:28:58.7579 	-0.024	-0.033	0.700
0:28:58.75795	-0.023	-0.058	0.700
0:28:58.758  	-0.023	-0.006	0.700
0:28:58.75805	-0.022	-0.040	0.700
0:28:58.7581 	-0.021	-0.049	0.700
0:28:58.75815	-0.020	-0.031	0.700
0:28:58.7582 	-0.019	-0.057	0.700
0:28:58.75825	-0.019	-0.045	0.700
0:28:58.7583 	-0.018	-0.047	0.700
0:28:58.75835	-0.017	-0.015	0.700
0:28:58.7584 	-0.016	-0.018	0.700
0:28:58.75845	-0.016	-0.015	0.700
0:28:58.7585 	-0.015	0.007 	0.700
0:28:58.75855	-0.013	-0.067	0.700
0:28:58.7586 	-0.013	-0.049	0.700
0:28:58.75865	-0.012	-0.005	0.700
0:28:58.7587 	-0.012	-0.020	0.700
0:28:58.75875	-0.011	-0.065	0.700
0:28:58.7588 	-0.010	0.005 	0.699
0:28:58.75885	-0.010	-0.070	0.700
0:28:58.7589 	-0.010	-0.047	0.700
0:28:58.75895	-0.010	-0.044	0.700
0:28:58.759  	-0.010	-0.028	0.699
0:28:58.75905	-0.010	-0.055	0.700
0:28:58.7591 	-0.011	-0.047	0.699
0:28:58.75915	-0.011	-0.073	0.699
0:28:58.7592 	-0.012	-0.037	0.699
0:28:58.75925	-0.013	-0.025	0.699
0:28:58.7593 	-0.015	-0.077	0.699
0:28:58.75935	-0.015	-0.041	0.699
0:28:58.7594 	-0.017	-0.063	0.699
0:28:58.75945	-0.019	-0.044	0.699
0:28:58.7595 	-0.020	-0.077	0.699
0:28:58.75955	-0.021	-0.049	0.699
0:28:58.7596 	-0.021	-0.057	0.699
0:28:58.75965	-0.023	-0.045	0.699
0:28:58.7597 	-0.024	-0.054	0.699
0:28:58.75975	-0.025	-0.025	0.699
0:28:58.7598 	-0.025	-0.043	0.699
0:28:58.75985	-0.026	-0.037	0.699
0:28:58.7599 	-0.026	-0.048	0.698
0:28:58.75995	-0.027	-0.052	0.699
0:28:58.76   	-0.027	-0.031	0.698
0:28:58.76005	-0.028	-0.027	0.699
0:28:58.7601 	-0.028	-0.039	0.698
0:28:58.76015	-0.029	-0.035	0.698
0:28:58.7602 	-0.029	-0.018	0.698
0:28:58.76025	-0.030	-0.016	0.698
0:28:58.7603 	-0.031	-0.057	0.698
0:28:58.76035	-0.030	-0.032	0.698
0:28:58.7604 	-0.031	-0.052	0.698
0:28:58.76045	-0.031	-0.052	0.698
0:28:58.7605 	-0.032	-0.049	0.698
0:28:58.76055	-0.032	-0.006	0.698
0:28:58.7606 	-0.033	-0.049	0.698
0:28:58.76065	-0.033	-0.053	0.698
0:28:58.7607 	-0.033	-0.017	0.698
0:28:58.76075	-0.033	-0.038	0.698
0:28:58.7608 	-0.034	-0.012	0.698
0:28:58.76085	-0.034	-0.026	0.698
0:28:58.7609 	-0.034	-0.056	0.698
0:28:58.76095	-0.034	-0.052	0.698
0:28:58.761  	-0.034	0.000 	0.698
0:28:58.76105	-0.035	0.000 	0.698
0:28:58.7611 	-0.035	-0.044	0.698
0:28:58.76115	-0.036	-0.049	0.697
0:28:58.7612 	-0.035	-0.057	0.697
0:28:58.76125	-0.036	-0.070	0.698
0:28:58.7613 	-0.036	-0.058	0.697
0:28:58.76135	-0.037	-0.061	0.697
0:28:58.7614 	-0.037	-0.059	0.697
0:28:58.76145	-0.037	-0.041	0.697
0:28:58.7615 	-0.037	-0.053	0.697
0:28:58.76155	-0.038	0.000 	0.697
0:28:58.7616 	-0.038	-0.006	0.697
0:28:58.76165	-0.038	-0.068	0.697
0:28:58.7617 	-0.038	-0.017	0.697
0:28:58.76175	-0.039	-0.006	0.697
0:28:58.7618 	-0.038	-0.025	0.697
0:28:58.76185	-0.039	-0.056	0.697
0:28:58.7619 	-0.039	-0.053	0.697
0:28:58.76195	-0.039	-0.004	0.697
0:28:58.762  	-0.039	-0.039	0.697
0:28:58.76205	-0.039	-0.056	0.697
0:28:58.7621 	-0.039	-0.056	0.697
0:28:58.76215	-0.039	-0.037	0.697
0:28:58.7622 	-0.040	-0.030	0.697
0:28:58.76225	-0.040	-0.059	0.697
0:28:58.7623 	-0.040	-0.014	0.697
0:28:58.76235	-0.041	-0.041	0.697
0:28:58.7624 	-0.041	-0.003	0.697
0:28:58.76245	-0.041	-0.051	0.697
0:28:58.7625 	-0.041	-0.063	0.697
0:28:58.76255	-0.041	-0.064	0.697
0:28:58.7626 	-0.042	-0.036	0.697
0:28:58.76265	-0.042	-0.084	0.696
0:28:58.7627 	-0.042	-0.068	0.696
0:28:58.76275	-0.042	-0.038	0.697
0:28:58.7628 	-0.042	-0.029	0.697
0:28:58.76285	-0.043	-0.043	0.696
0:28:58.7629 	-0.043	-0.020	0.696
0:28:58.76295	-0.043	-0.031	0.697
0:28:58.763  	-0.043	-0.037	0.696
0:28:58.76305	-0.043	-0.047	0.696
0:28:58.7631 	-0.043	-0.077	0.696
0:28:58.76315	-0.043	-0.032	0.696
0:28:58.7632 	-0.043	-0.026	0.696
0:28:58.76325	-0.044	-0.025	0.696
0:28:58.7633 	-0.043	-0.022	0.696
0:28:58.76335	-0.043	-0.011	0.696
0:28:58.7634 	-0.042	0.014 	0.696
0:28:58.76345	-0.042	-0.002	0.696
0:28:58.7635 	-0.042	-0.020	0.696
0:28:58.76355	-0.043	-0.076	0.696
0:28:58.7636 	-0.043	-0.065	0.696
0:28:58.76365	-0.042	-0.036	0.696
0:28:58.7637 	-0.042	-0.027	0.696
0:28:58.76375	-0.043	-0.018	0.696
0:28:58.7638 	-0.042	-0.033	0.696
0:28:58.76385	-0.043	-0.016	0.695
0:28:58.7639 	-0.043	-0.017	0.696
0:28:58.76395	-0.042	-0.016	0.696
0:28:58.764  	-0.042	-0.014	0.696
0:28:58.76405	-0.041	-0.029	0.696
0:28:58.7641 	-0.041	-0.007	0.696
0:28:58.76415	-0.041	-0.019	0.696
0:28:58.7642 	-0.041	-0.030	0.696
0:28:58.76425	-0.041	-0.032	0.696
0:28:58.7643 	-0.041	-0.075	0.696
0:28:58.76435	-0.041	-0.038	0.696
0:28:58.7644 	-0.040	-0.048	0.696
0:28:58.76445	-0.040	-0.054	0.696
0:28:58.7645 	-0.040	-0.049	0.696
0:28:58.76455	-0.039	-0.050	0.696
0:28:58.7646 	-0.039	-0.046	0.696
0:28:58.76465	-0.039	-0.077	0.696
0:28:58.7647 	-0.038	-0.018	0.696
0:28:58.76475	-0.038	-0.038	0.695
0:28:58.7648 	-0.039	-0.013	0.695
0:28:58.76485	-0.038	-0.027	0.696
0:28:58.7649 	-0.038	-0.010	0.696
0:28:58.76495	-0.038	-0.027	0.696
0:28:58.765  	-0.037	-0.076	0.696
0:28:58.76505	-0.037	-0.055	0.696
0:28:58.7651 	-0.038	-0.066	0.696
0:28:58.76515	-0.037	-0.006	0.696
0:28:58.7652 	-0.037	-0.056	0.696
0:28:58.76525	-0.036	-0.004	0.696
0:28:58.7653 	-0.036	-0.033	0.696
0:28:58.76535	-0.036	-0.038	0.696
0:28:58.7654 	-0.035	-0.029	0.696
0:28:58.76545	-0.035	-0.058	0.696
0:28:58.7655 	-0.035	-0.043	0.696
0:28:58.76555	-0.034	-0.065	0.696
0:28:58.7656 	-0.033	-0.045	0.696
0:28:58.76565	-0.033	-0.036	0.696
0:28:58.7657 	-0.032	-0.060	0.696
0:28:58.76575	-0.031	-0.065	0.696
0:28:58.7658 	-0.030	-0.044	0.696
0:28:58.76585	-0.030	-0.036	0.696
0:28:58.7659 	-0.028	-0.013	0.696
0:28:58.76595	-0.028	-0.035	0.696
0:28:58.766  	-0.026	-0.020	0.696
0:28:58.76605	-0.026	-0.017	0.696
0:28:58.7661 	-0.025	-0.057	0.696
0:28:58.76615	-0.025	-0.020	0.696
0:28:58.7662 	-0.023	-0.071	0.696
0:28:58.76625	-0.023	-0.066	0.696
0:28:58.7663 	-0.022	-0.054	0.696
0:28:58.76635	-0.021	-0.035	0.696
0:28:58.7664 	-0.021	-0.066	0.696
0:28:58.76645	-0.020	-0.067	0.696
0:28:58.7665 	-0.020	-0.002	0.696
0:28:58.76655	-0.018	-0.043	0.696
0:28:58.7666 	-0.018	-0.023	0.696
0:28:58.76665	-0.018	-0.052	0.696
0:28:58.7667 	-0.017	-0.048	0.697
0:28:58.76675	-0.016	-0.065	0.697
0:28:58.7668 	-0.015	-0.058	0.696
0:28:58.76685	-0.015	-0.014	0.697
0:28:58.7669 	-0.014	-0.070	0.697
0:28:58.76695	-0.014	-0.062	0.697
0:28:58.767  	-0.013	-0.022	0.697
0:28:58.76705	-0.013	-0.054	0.697
0:28:58.7671 	-0.013	-0.005	0.697
0:28:58.76715	-0.013	-0.032	0.697
0:28:58.7672 	-0.012	-0.010	0.697
0:28:58.76725	-0.011	-0.035	0.697
0:28:58.7673 	-0.013	-0.022	0.697
0:28:58.76735	-0.012	-0.005	0.697
0:28:58.7674 	-0.013	-0.031	0.697
0:28:58.76745	-0.013	-0.046	0.697
0:28:58.7675 	-0.014	-0.042	0.697
0:28:58.76755	-0.015	-0.042	0.697
0:28:58.7676 	-0.016	-0.016	0.697
0:28:58.76765	-0.016	-0.072	0.697
0:28:58.7677 	-0.018	-0.046	0.698
0:28:58.76775	-0.019	-0.056	0.697
0:28:58.7678 	-0.020	-0.020	0.698
0:28:58.76785	-0.021	0.010 	0.698
0:28:58.7679 	-0.022	-0.054	0.698
0:28:58.76795	-0.023	-0.027	0.698
0:28:58.768  	-0.024	-0.014	0.698
0:28:58.76805	-0.025	-0.031	0.698
0:28:58.7681 	-0.025	-0.012	0.698
0:28:58.76815	-0.026	0.000 	0.698
0:28:58.7682 	-0.027	-0.030	0.698
0:28:58.76825	-0.028	-0.075	0.698
0:28:58.7683 	-0.028	-0.073	0.698
0:28:58.76835	-0.029	-0.039	0.698
0:28:58.7684 	-0.029	-0.065	0.698
0:28:58.76845	-0.030	-0.053	0.698
0:28:58.7685 	-0.030	-0.041	0.698
0:28:58.76855	-0.031	-0.039	0.698
0:28:58.7686 	-0.032	-0.054	0.698
0:28:58.76865	-0.032	-0.073	0.698
0:28:58.7687 	-0.033	-0.066	0.698
0:28:58.76875	-0.033	-0.020	0.698
0:28:58.7688 	-0.034	-0.052	0.698
0:28:58.76885	-0.034	-0.100	0.698
0:28:58.7689 	-0.034	-0.057	0.699
0:28:58.76895	-0.035	-0.017	0.698
0:28:58.769  	-0.036	-0.057	0.698
0:28:58.76905	-0.036	-0.075	0.698
0:28:58.7691 	-0.037	-0.070	0.698
0:28:58.76915	-0.037	-0.030	0.699
0:28:58.7692 	-0.037	-0.046	0.699
0:28:58.76925	-0.038	-0.059	0.698
0:28:58.7693 	-0.038	-0.018	0.698
0:28:58.76935	-0.039	-0.054	0.698
0:28:58.7694 	-0.039	-0.028	0.699
0:28:58.76945	-0.039	-0.028	0.699
0:28:58.7695 	-0.040	-0.037	0.698
0:28:58.76955	-0.040	-0.060	0.699
0:28:58.7696 	-0.040	-0.054	0.699
0:28:58.76965	-0.040	-0.091	0.699
0:28:58.7697 	-0.041	-0.056	0.699
0:28:58.76975	-0.041	-0.002	0.699
0:28:58.7698 	-0.041	-0.055	0.699
0:28:58.76985	-0.041	-0.034	0.699
0:28:58.7699 	-0.040	-0.021	0.699
0:28:58.76995	-0.041	-0.004	0.699
0:28:58.77   	-0.041	-0.033	0.699
0:28:58.77005	-0.041	-0.050	0.699
0:28:58.7701 	-0.041	-0.047	0.699
0:28:58.77015	-0.041	0.007 	0.700
0:28:58.7702 	-0.041	-0.057	0.699
0:28:58.77025	-0.041	-0.055	0.700
0:28:58.7703 	-0.041	-0.041	0.699
0:28:58.77035	-0.041	-0.014	0.700
0:28:58.7704 	-0.041	-0.022	0.700
0:28:58.77045	-0.040	-0.084	0.699
0:28:58.7705 	-0.040	-0.045	0.700
0:28:58.77055	-0.041	-0.024	0.699
0:28:58.7706 	-0.041	-0.028	0.700
0:28:58.77065	-0.040	-0.032	0.700
0:28:58.7707 	-0.041	-0.025	0.700
0:28:58.77075	-0.040	-0.047	0.700
0:28:58.7708 	-0.041	0.002 	0.700
0:28:58.77085	-0.040	-0.084	0.700
0:28:58.7709 	-0.040	-0.023	0.700
0:28:58.77095	-0.040	-0.008	0.700
0:28:58.771  	-0.040	-0.043	0.700
0:28:58.77105	-0.040	-0.063	0.700
0:28:58.7711 	-0.040	-0.001	0.700
0:28:58.77115	-0.039	-0.025	0.700
0:28:58.7712 	-0.039	-0.045	0.700
0:28:58.77125	-0.039	-0.026	0.700
0:28:58.7713 	-0.038	-0.021	0.700
0:28:58.77135	-0.038	0.006 	0.700
0:28:58.7714 	-0.039	-0.038	0.700
0:28:58.77145	-0.038	-0.076	0.700
0:28:58.7715 	-0.038	-0.062	0.700
0:28:58.77155	-0.039	-0.077	0.700
0:28:58.7716 	-0.039	-0.013	0.700
0:28:58.77165	-0.038	-0.045	0.700
0:28:58.7717 	-0.039	-0.026	0.700
0:28:58.77175	-0.038	-0.010	0.700
0:28:58.7718 	-0.039	-0.043	0.700
0:28:58.77185	-0.039	-0.025	0.700
0:28:58.7719 	-0.039	-0.008	0.700
0:28:58.77195	-0.039	0.015 	0.700
0:28:58.772  	-0.039	-0.057	0.700
0:28:58.77205	-0.039	-0.016	0.701
0:28:58.7721 	-0.039	-0.053	0.700
0:28:58.77215	-0.039	-0.042	0.700
0:28:58.7722 	-0.039	-0.089	0.700
0:28:58.77225	-0.038	-0.043	0.700
0:28:58.7723 	-0.038	-0.037	0.701
0:28:58.77235	-0.038	-0.044	0.700
0:28:58.7724 	-0.038	-0.028	0.700
0:28:58.77245	-0.038	-0.085	0.700
0:28:58.7725 	-0.038	-0.046	0.700
0:28:58.77255	-0.038	-0.006	0.700
0:28:58.7726 	-0.038	-0.025	0.700
0:28:58.77265	-0.038	-0.029	0.700
0:28:58.7727 	-0.038	-0.030	0.700
0:28:58.77275	-0.038	-0.030	0.701
0:28:58.7728 	-0.039	-0.055	0.700
0:28:58.77285	-0.039	-0.021	0.700
0:28:58.7729 	-0.039	-0.048	0.700
0:28:58.77295	-0.039	-0.058	0.700
0:28:58.773  	-0.040	-0.048	0.700
0:28:58.77305	-0.039	-0.050	0.701
0:28:58.7731 	-0.039	-0.063	0.700
0:28:58.77315	-0.039	-0.028	0.700
0:28:58.7732 	-0.039	-0.048	0.700
0:28:58.77325	-0.039	-0.004	0.701
0:28:58.7733 	-0.039	-0.072	0.700
0:28:58.77335	-0.039	-0.058	0.700
0:28:58.7734 	-0.039	-0.058	0.700
0:28:58.77345	-0.040	-0.070	0.700
0:28:58.7735 	-0.039	-0.030	0.700
0:28:58.77355	-0.038	-0.058	0.700
0:28:58.7736 	-0.039	-0.020	0.700
0:28:58.77365	-0.038	-0.009	0.700
0:28:58.7737 	-0.038	-0.038	0.701
0:28:58.77375	-0.037	-0.081	0.700
0:28:58.7738 	-0.037	-0.043	0.700
0:28:58.77385	-0.036	-0.065	0.701
0:28:58.7739 	-0.035	-0.056	0.700
0:28:58.77395	-0.034	-0.078	0.700
0:28:58.774  	-0.034	-0.093	0.700
0:28:58.77405	-0.033	-0.012	0.700
0:28:58.7741 	-0.033	-0.065	0.700
0:28:58.77415	-0.032	-0.059	0.700
0:28:58.7742 	-0.031	-0.069	0.700
0:28:58.77425	-0.030	-0.073	0.700
0:28:58.7743 	-0.030	-0.064	0.700
0:28:58.77435	-0.028	0.005 	0.700
0:28:58.7744 	-0.028	-0.028	0.700
0:28:58.77445	-0.026	-0.053	0.700
0:28:58.7745 	-0.025	-0.034	0.700
0:28:58.77455	-0.024	-0.072	0.700
0:28:58.7746 	-0.022	-0.088	0.700
0:28:58.77465	-0.022	-0.053	0.700
0:28:58.7747 	-0.021	-0.032	0.700
0:28:58.77475	-0.020	-0.018	0.700
0:28:58.7748 	-0.020	-0.043	0.700
0:28:58.77485	-0.019	-0.033	0.700
0:28:58.7749 	-0.018	-0.043	0.700
0:28:58.77495	-0.017	-0.057	0.700
0:28:58.775  	-0.016	-0.085	0.700
0:28:58.77505	-0.016	-0.023	0.700
0:28:58.7751 	-0.015	-0.038	0.700
0:28:58.77515	-0.014	-0.023	0.700
0:28:58.7752 	-0.014	-0.054	0.699
0:28:58.77525	-0.013	-0.095	0.700
0:28:58.7753 	-0.012	-0.027	0.700
0:28:58.77535	-0.012	-0.040	0.699
0:28:58.7754 	-0.012	-0.031	0.699
0:28:58.77545	-0.012	-0.041	0.699
0:28:58.7755 	-0.011	-0.064	0.700
0:28:58.77555	-0.012	-0.049	0.700
0:28:58.7756 	-0.011	-0.036	0.699
0:28:58.77565	-0.011	-0.011	0.699
0:28:58.7757 	-0.011	-0.090	0.699
0:28:58.77575	-0.012	-0.045	0.699
0:28:58.7758 	-0.012	-0.064	0.699
0:28:58.77585	-0.013	-0.091	0.700
0:28:58.7759 	-0.013	-0.026	0.699
0:28:58.77595	-0.014	0.003 	0.699
0:28:58.776  	-0.015	-0.036	0.699
0:28:58.77605	-0.017	-0.068	0.699
0:28:58.7761 	-0.018	-0.041	0.699
0:28:58.77615	-0.019	-0.011	0.699
0:28:58.7762 	-0.020	-0.035	0.698
0:28:58.77625	-0.021	-0.025	0.699
0:28:58.7763 	-0.022	-0.010	0.698
0:28:58.77635	-0.023	-0.042	0.699
0:28:58.7764 	-0.023	-0.045	0.699
0:28:58.77645	-0.024	-0.019	0.699
0:28:58.7765 	-0.025	-0.009	0.698
0:28:58.77655	-0.025	-0.003	0.699
0:28:58.7766 	-0.026	-0.017	0.699
0:28:58.77665	-0.027	-0.023	0.698
0:28:58.7767 	-0.027	-0.047	0.698
0:28:58.77675	-0.028	-0.018	0.698
0:28:58.7768 	-0.029	-0.033	0.698
0:28:58.77685	-0.029	-0.048	0.698
0:28:58.7769 	-0.029	-0.009	0.698
0:28:58.77695	-0.029	-0.071	0.698
0:28:58.777  	-0.030	-0.042	0.698
0:28:58.77705	-0.030	-0.045	0.698
0:28:58.7771 	-0.031	-0.070	0.698
0:28:58.77715	-0.032	-0.061	0.698
0:28:58.7772 	-0.031	-0.030	0.698
0:28:58.77725	-0.032	-0.074	0.698
0:28:58.7773 	-0.032	-0.050	0.698
0:28:58.77735	-0.033	-0.028	0.698
0:28:58.7774 	-0.033	-0.068	0.698
0:28:58.77745	-0.033	-0.050	0.698
0:28:58.7775 	-0.033	-0.080	0.698
0:28:58.77755	-0.034	-0.009	0.698
0:28:58.7776 	-0.033	0.004 	0.698
0:28:58.77765	-0.034	-0.045	0.698
0:28:58.7777 	-0.035	-0.071	0.697
0:28:58.77775	-0.035	-0.037	0.698
0:28:58.7778 	-0.035	-0.041	0.698
0:28:58.77785	-0.035	-0.061	0.697
0:28:58.7779 	-0.035	-0.071	0.697
0:28:58.77795	-0.035	-0.032	0.697
0:28:58.778  	-0.036	-0.060	0.697
0:28:58.77805	-0.036	-0.084	0.697
0:28:58.7781 	-0.036	-0.092	0.697
0:28:58.77815	-0.037	-0.032	0.697
0:28:58.7782 	-0.037	-0.053	0.697
0:28:58.77825	-0.037	-0.056	0.697
0:28:58.7783 	-0.037	-0.046	0.697
0:28:58.77835	-0.037	-0.037	0.697
0:28:58.7784 	-0.038	-0.045	0.697
0:28:58.77845	-0.038	-0.043	0.697
0:28:58.7785 	-0.038	-0.030	0.697
0:28:58.77855	-0.038	-0.053	0.697
0:28:58.7786 	-0.038	-0.027	0.697
0:28:58.77865	-0.039	-0.044	0.697
0:28:58.7787 	-0.039	-0.046	0.696
0:28:58.77875	-0.039	-0.025	0.697
0:28:58.7788 	-0.040	-0.055	0.697
0:28:58.77885	-0.040	-0.057	0.696
0:28:58.7789 	-0.040	-0.024	0.697
0:28:58.77895	-0.041	-0.066	0.697
0:28:58.779  	-0.041	-0.058	0.697
0:28:58.77905	-0.042	-0.039	0.697
0:28:58.7791 	-0.041	0.004 	0.696
0:28:58.77915	-0.041	-0.039	0.697
0:28:58.7792 	-0.041	-0.039	0.697
0:28:58.77925	-0.041	-0.064	0.696
0:28:58.7793 	-0.041	-0.043	0.697
0:28:58.77935	-0.042	-0.045	0.696
0:28:58.7794 	-0.042	0.000 	0.696
0:28:58.77945	-0.042	-0.028	0.696
0:28:58.7795 	-0.042	-0.059	0.696
0:28:58.77955	-0.042	-0.057	0.696
0:28:58.7796 	-0.042	-0.027	0.696
0:28:58.77965	-0.042	-0.078	0.696
0:28:58.7797 	-0.042	-0.015	0.696
0:28:58.77975	-0.043	-0.066	0.696
0:28:58.7798 	-0.042	-0.040	0.696
0:28:58.77985	-0.042	-0.029	0.696
0:28:58.7799 	-0.042	-0.056	0.696
0:28:58.77995	-0.042	-0.003	0.696
0:28:58.78   	-0.041	-0.029	0.696
0:28:58.78005	-0.042	-0.034	0.696
0:28:58.7801 	-0.042	-0.058	0.696
0:28:58.78015	-0.042	-0.073	0.696
0:28:58.7802 	-0.042	-0.014	0.696
0:28:58.78025	-0.042	-0.047	0.696
0:28:58.7803 	-0.042	-0.069	0.696
0:28:58.78035	-0.043	-0.027	0.696
0:28:58.7804 	-0.042	-0.010	0.696
0:28:58.78045	-0.042	-0.048	0.696
0:28:58.7805 	-0.041	-0.076	0.696
0:28:58.78055	-0.042	-0.028	0.696
0:28:58.7806 	-0.041	-0.061	0.696
0:28:58.78065	-0.042	-0.085	0.696
0:28:58.7807 	-0.041	-0.029	0.696
0:28:58.78075	-0.041	-0.054	0.696
0:28:58.7808 	-0.041	-0.022	0.696
0:28:58.78085	-0.041	-0.100	0.696
0:28:58.7809 	-0.040	-0.042	0.696
0:28:58.78095	-0.041	-0.045	0.696
0:28:58.781  	-0.040	-0.036	0.696
0:28:58.78105	-0.040	-0.070	0.696
0:28:58.7811 	-0.041	-0.046	0.695
0:28:58.78115	-0.040	-0.056	0.695
0:28:58.7812 	-0.040	-0.066	0.696
0:28:58.78125	-0.040	-0.067	0.696
0:28:58.7813 	-0.039	-0.021	0.695
0:28:58.78135	-0.040	-0.047	0.695
0:28:58.7814 	-0.039	-0.020	0.695
0:28:58.78145	-0.039	-0.040	0.696
0:28:58.7815 	-0.039	0.005 	0.696
0:28:58.78155	-0.038	-0.052	0.696
0:28:58.7816 	-0.039	-0.030	0.695
0:28:58.78165	-0.038	-0.072	0.696
0:28:58.7817 	-0.038	-0.050	0.696
0:28:58.78175	-0.038	-0.037	0.696
0:28:58.7818 	-0.038	-0.050	0.696
0:28:58.78185	-0.037	-0.034	0.695
0:28:58.7819 	-0.037	-0.034	0.695
0:28:58.78195	-0.037	-0.042	0.696
0:28:58.782  	-0.036	-0.024	0.696
0:28:58.78205	-0.036	-0.052	0.696
0:28:58.7821 	-0.035	-0.008	0.695
0:28:58.78215	-0.035	-0.037	0.696
0:28:58.7822 	-0.034	-0.037	0.695
0:28:58.78225	-0.034	-0.019	0.696
0:28:58.7823 	-0.033	-0.070	0.696
0:28:58.78235	-0.032	-0.033	0.696
0:28:58.7824 	-0.031	-0.037	0.696
0:28:58.78245	-0.030	-0.037	0.696
0:28:58.7825 	-0.029	-0.023	0.696
0:28:58.78255	-0.029	-0.023	0.696
0:28:58.7826 	-0.028	-0.046	0.696
0:28:58.78265	-0.027	-0.056	0.696
0:28:58.7827 	-0.027	-0.086	0.696
0:28:58.78275	-0.026	-0.017	0.696
0:28:58.7828 	-0.025	-0.026	0.696
0:28:58.78285	-0.025	-0.040	0.696
0:28:58.7829 	-0.024	-0.015	0.696
0:28:58.78295	-0.024	-0.073	0.696
0:28:58.783  	-0.022	0.022 	0.696
0:28:58.78305	-0.021	-0.033	0.696
0:28:58.7831 	-0.021	-0.052	0.696
0:28:58.78315	-0.020	-0.021	0.696
0:28:58.7832 	-0.020	-0.073	0.696
0:28:58.78325	-0.019	-0.061	0.696
0:28:58.7833 	-0.018	-0.035	0.696
0:28:58.78335	-0.017	-0.012	0.697
0:28:58.7834 	-0.017	-0.054	0.696
0:28:58.78345	-0.016	-0.055	0.697
0:28:58.7835 	-0.015	-0.035	0.696
0:28:58.78355	-0.015	-0.070	0.697
0:28:58.7836 	-0.015	-0.010	0.697
0:28:58.78365	-0.014	-0.083	0.697
0:28:58.7837 	-0.013	-0.059	0.697
0:28:58.78375	-0.013	-0.020	0.697
0:28:58.7838 	-0.012	-0.036	0.697
0:28:58.78385	-0.013	-0.043	0.697
0:28:58.7839 	-0.013	-0.038	0.697
0:28:58.78395	-0.012	-0.044	0.697
0:28:58.784  	-0.013	-0.032	0.697
0:28:58.78405	-0.014	-0.041	0.697
0:28:58.7841 	-0.014	-0.040	0.697
0:28:58.78415	-0.015	-0.025	0.697
0:28:58.7842 	-0.015	-0.022	0.697
0:28:58.78425	-0.016	-0.041	0.697
0:28:58.7843 	-0.017	0.009 	0.697
0:28:58.78435	-0.018	-0.041	0.697
0:28:58.7844 	-0.019	-0.060	0.697
0:28:58.78445	-0.020	-0.037	0.697
0:28:58.7845 	-0.021	-0.038	0.697
0:28:58.78455	-0.023	-0.020	0.697
0:28:58.7846 	-0.024	-0.008	0.697
0:28:58.78465	-0.024	-0.021	0.698
0:28:58.7847 	-0.025	-0.047	0.697
0:28:58.78475	-0.026	-0.054	0.698
0:28:58.7848 	-0.026	-0.059	0.698
0:28:58.78485	-0.026	-0.025	0.698
0:28:58.7849 	-0.027	-0.039	0.697
0:28:58.78495	-0.028	-0.051	0.698
0:28:58.785  	-0.029	-0.019	0.698
0:28:58.78505	-0.030	-0.087	0.698
0:28:58.7851 	-0.030	-0.068	0.698
0:28:58.78515	-0.032	-0.076	0.698
0:28:58.7852 	-0.032	-0.049	0.698
0:28:58.78525	-0.032	-0.070	0.698
0:28:58.7853 	-0.032	-0.051	0.698
0:28:58.78535	-0.033	-0.065	0.698
0:28:58.7854 	-0.033	-0.048	0.698
0:28:58.78545	-0.034	-0.048	0.698
0:28:58.7855 	-0.035	-0.021	0.698
0:28:58.78555	-0.035	-0.060	0.698
0:28:58.7856 	-0.035	-0.055	0.698
0:28:58.78565	-0.036	-0.021	0.698
0:28:58.7857 	-0.036	-0.009	0.698
0:28:58.78575	-0.037	-0.015	0.698
0:28:58.7858 	-0.037	-0.077	0.698
0:28:58.78585	-0.037	-0.042	0.699
0:28:58.7859 	-0.037	-0.052	0.699
0:28:58.78595	-0.038	-0.048	0.699
0:28:58.786  	-0.038	-0.057	0.698
0:28:58.78605	-0.039	-0.063	0.699
0:28:58.7861 	-0.039	-0.049	0.698
0:28:58.78615	-0.039	-0.007	0.699
0:28:58.7862 	-0.039	-0.080	0.699
0:28:58.78625	-0.040	-0.013	0.699
0:28:58.7863 	-0.040	-0.020	0.699
0:28:58.78635	-0.040	-0.040	0.699
0:28:58.7864 	-0.040	-0.038	0.699
0:28:58.78645	-0.040	0.029 	0.699
0:28:58.7865 	-0.041	-0.024	0.699
0:28:58.78655	-0.040	0.000 	0.699
0:28:58.7866 	-0.041	-0.033	0.699
0:28:58.78665	-0.041	-0.058	0.699
0:28:58.7867 	-0.041	-0.045	0.699
0:28:58.78675	-0.041	-0.053	0.700
0:28:58.7868 	-0.041	-0.078	0.699
0:28:58.78685	-0.041	-0.073	0.699
0:28:58.7869 	-0.041	-0.030	0.699
0:28:58.78695	-0.041	-0.059	0.699
0:28:58.787  	-0.041	0.002 	0.700
0:28:58.78705	-0.041	-0.014	0.699
0:28:58.7871 	-0.041	-0.036	0.700
0:28:58.78715	-0.041	-0.053	0.699
0:28:58.7872 	-0.040	-0.054	0.699
0:28:58.78725	-0.040	-0.051	0.699
0:28:58.7873 	-0.040	-0.002	0.700
0:28:58.78735	-0.040	-0.029	0.700
0:28:58.7874 	-0.040	0.006 	0.700
0:28:58.78745	-0.040	-0.069	0.700
0:28:58.7875 	-0.039	-0.015	0.700
0:28:58.78755	-0.040	-0.004	0.700
0:28:58.7876 	-0.040	-0.050	0.700
0:28:58.78765	-0.040	0.001 	0.700
0:28:58.7877 	-0.040	-0.049	0.700
0:28:58.78775	-0.040	-0.030	0.700
0:28:58.7878 	-0.040	-0.088	0.700
0:28:58.78785	-0.039	0.016 	0.700
0:28:58.7879 	-0.039	-0.032	0.700
0:28:58.78795	-0.039	-0.027	0.700
0:28:58.788  	-0.039	-0.037	0.700
0:28:58.78805	-0.039	-0.031	0.700
0:28:58.7881 	-0.038	-0.018	0.700
0:28:58.78815	-0.039	-0.049	0.700
0:28:58.7882 	-0.038	-0.029	0.700
0:28:58.78825	-0.038	-0.045	0.700
0:28:58.7883 	-0.038	-0.001	0.700
0:28:58.78835	-0.038	-0.040	0.700
0:28:58.7884 	-0.038	-0.004	0.700
0:28:58.78845	-0.038	-0.043	0.700
0:28:58.7885 	-0.039	-0.071	0.700
0:28:58.78855	-0.038	-0.066	0.700
0:28:58.7886 	-0.038	-0.018	0.700
0:28:58.78865	-0.038	-0.030	0.700
0:28:58.7887 	-0.038	-0.018	0.700
0:28:58.78875	-0.038	-0.065	0.700
0:28:58.7888 	-0.038	-0.051	0.700
0:28:58.78885	-0.037	-0.028	0.700
0:28:58.7889 	-0.037	-0.060	0.700
0:28:58.78895	-0.038	-0.015	0.700
0:28:58.789  	-0.038	-0.047	0.700
0:28:58.78905	-0.039	-0.004	0.700
0:28:58.7891 	-0.038	-0.027	0.700
0:28:58.78915	-0.039	-0.019	0.700
0:28:58.7892 	-0.038	-0.035	0.700
0:28:58.78925	-0.039	0.008 	0.700
0:28:58.7893 	-0.039	-0.054	0.700
0:28:58.78935	-0.039	-0.030	0.700
0:28:58.7894 	-0.039	-0.035	0.700
0:28:58.78945	-0.039	-0.059	0.700
0:28:58.7895 	-0.040	-0.028	0.700
0:28:58.78955	-0.039	-0.039	0.700
0:28:58.7896 	-0.039	-0.056	0.700
0:28:58.78965	-0.039	-0.007	0.700
0:28:58.7897 	-0.039	-0.028	0.700
0:28:58.78975	-0.039	-0.065	0.700
0:28:58.7898 	-0.040	-0.033	0.700
0:28:58.78985	-0.040	-0.053	0.700
0:28:58.7899 	-0.039	-0.034	0.700
0:28:58.78995	-0.040	-0.030	0.700
0:28:58.79   	-0.039	-0.048	0.700
0:28:58.79005	-0.040	-0.048	0.701
0:28:58.7901 	-0.040	-0.067	0.700
0:28:58.79015	-0.039	-0.063	0.700
0:28:58.7902 	-0.039	-0.023	0.700
0:28:58.79025	-0.040	-0.073	0.700
0:28:58.7903 	-0.039	-0.010	0.701
0:28:58.79035	-0.039	-0.009	0.700
0:28:58.7904 	-0.038	-0.066	0.700
0:28:58.79045	-0.038	-0.016	0.700
0:28:58.7905 	-0.037	-0.019	0.700
0:28:58.79055	-0.037	-0.038	0.700
0:28:58.7906 	-0.036	-0.051	0.700
0:28:58.79065	-0.034	-0.057	0.700
0:28:58.7907 	-0.034	-0.003	0.700
0:28:58.79075	-0.033	-0.040	0.700
0:28:58.7908 	-0.032	-0.020	0.700
0:28:58.79085	-0.031	-0.012	0.700
0:28:58.7909 	-0.030	-0.012	0.700
0:28:58.79095	-0.029	-0.040	0.700
0:28:58.791  	-0.028	-0.051	0.700
0:28:58.79105	-0.028	-0.044	0.700
0:28:58.7911 	-0.026	-0.034	0.700
0:28:58.79115	-0.025	-0.040	0.700
0:28:58.7912 	-0.024	-0.050	0.700
0:28:58.79125	-0.024	-0.049	0.700
0:28:58.7913 	-0.022	-0.035	0.700
0:28:58.79135	-0.022	-0.071	0.700
0:28:58.7914 	-0.021	-0.045	0.700
0:28:58.79145	-0.020	-0.027	0.700
0:28:58.7915 	-0.019	-0.030	0.700
0:28:58.79155	-0.018	-0.081	0.700
0:28:58.7916 	-0.018	-0.022	0.700
0:28:58.79165	-0.017	-0.008	0.700
0:28:58.7917 	-0.016	-0.045	0.699
0:28:58.79175	-0.015	-0.036	0.700
0:28:58.7918 	-0.015	-0.061	0.700
0:28:58.79185	-0.014	-0.053	0.699
0:28:58.7919 	-0.013	-0.029	0.699
0:28:58.79195	-0.013	-0.095	0.699
0:28:58.792  	-0.012	-0.046	0.699
0:28:58.79205	-0.012	-0.038	0.699
0:28:58.7921 	-0.011	-0.029	0.700
0:28:58.79215	-0.011	-0.037	0.699
0:28:58.7922 	-0.011	-0.001	0.699
0:28:58.79225	-0.011	0.015 	0.699
0:28:58.7923 	-0.011	-0.041	0.700
0:28:58.79235	-0.011	-0.058	0.699
0:28:58.7924 	-0.012	-0.055	0.699
0:28:58.79245	-0.012	-0.055	0.699
0:28:58.7925 	-0.012	-0.072	0.699
0:28:58.79255	-0.014	-0.057	0.699
0:28:58.7926 	-0.015	0.016 	0.699
0:28:58.79265	-0.015	-0.052	0.699
0:28:58.7927 	-0.017	-0.052	0.699
0:28:58.79275	-0.018	-0.041	0.698
0:28:58.7928 	-0.018	-0.039	0.699
0:28:58.79285	-0.020	-0.022	0.698
0:28:58.7929 	-0.021	-0.022	0.699
0:28:58.79295	-0.022	-0.058	0.698
0:28:58.793  	-0.022	-0.038	0.699
0:28:58.79305	-0.023	-0.054	0.698
0:28:58.7931 	-0.024	-0.092	0.698
0:28:58.79315	-0.025	-0.060	0.698
0:28:58.7932 	-0.026	-0.046	0.698
0:28:58.79325	-0.027	-0.005	0.698
0:28:58.7933 	-0.027	-0.045	0.698
0:28:58.79335	-0.028	-0.019	0.698
0:28:58.7934 	-0.029	-0.021	0.698
0:28:58.79345	-0.029	-0.038	0.698
0:28:58.7935 	-0.029	-0.019	0.698
0:28:58.79355	-0.030	-0.030	0.698
0:28:58.7936 	-0.030	-0.049	0.698
0:28:58.79365	-0.031	-0.061	0.698
0:28:58.7937 	-0.031	-0.046	0.698
0:28:58.79375	-0.032	-0.073	0.698
0:28:58.7938 	-0.031	-0.067	0.698
0:28:58.79385	-0.032	-0.048	0.698
0:28:58.7939 	-0.032	-0.034	0.698
0:28:58.79395	-0.033	0.002 	0.698
0:28:58.794  	-0.033	0.011 	0.698
0:28:58.79405	-0.033	-0.039	0.698
0:28:58.7941 	-0.035	-0.051	0.698
0:28:58.79415	-0.035	-0.030	0.698
0:28:58.7942 	-0.035	-0.003	0.698
0:28:58.79425	-0.035	-0.018	0.697
0:28:58.7943 	-0.035	-0.049	0.698
0:28:58.79435	-0.035	-0.028	0.697
0:28:58.7944 	-0.035	-0.028	0.697
0:28:58.79445	-0.035	-0.043	0.697
0:28:58.7945 	-0.036	-0.044	0.698
0:28:58.79455	-0.036	-0.055	0.697
0:28:58.7946 	-0.036	-0.042	0.697
0:28:58.79465	-0.037	-0.035	0.698
0:28:58.7947 	-0.036	-0.022	0.697
0:28:58.79475	-0.037	-0.021	0.697
0:28:58.7948 	-0.037	-0.044	0.697
0:28:58.79485	-0.037	-0.071	0.697
0:28:58.7949 	-0.037	-0.052	0.697
0:28:58.79495	-0.037	-0.052	0.697
0:28:58.795  	-0.038	-0.042	0.697
0:28:58.79505	-0.038	-0.032	0.697
0:28:58.7951 	-0.038	-0.038	0.697
0:28:58.79515	-0.038	-0.033	0.697
0:28:58.7952 	-0.038	-0.043	0.697
0:28:58.79525	-0.039	-0.054	0.696
0:28:58.7953 	-0.039	-0.049	0.697
0:28:58.79535	-0.040	-0.045	0.696
0:28:58.7954 	-0.040	-0.057	0.696
0:28:58.79545	-0.040	-0.038	0.697
0:28:58.7955 	-0.040	-0.039	0.697
0:28:58.79555	-0.041	-0.026	0.697
0:28:58.7956 	-0.041	-0.056	0.696
0:28:58.79565	-0.041	-0.030	0.697
0:28:58.7957 	-0.041	-0.008	0.696
0:28:58.79575	-0.041	-0.058	0.697
0:28:58.7958 	-0.041	-0.023	0.696
0:28:58.79585	-0.041	-0.042	0.696
0:28:58.7959 	-0.042	-0.053	0.696
0:28:58.79595	-0.042	-0.038	0.696
0:28:58.796  	-0.042	-0.054	0.696
0:28:58.79605	-0.041	-0.063	0.696
0:28:58.7961 	-0.042	-0.055	0.696
0:28:58.79615	-0.043	-0.043	0.696
0:28:58.7962 	-0.042	-0.018	0.696
0:28:58.79625	-0.043	-0.030	0.696
0:28:58.7963 	-0.043	-0.024	0.696
0:28:58.79635	-0.043	-0.025	0.696
0:28:58.7964 	-0.042	-0.049	0.696
0:28:58.79645	-0.043	-0.022	0.696
0:28:58.7965 	-0.043	-0.060	0.696
0:28:58.79655	-0.042	-0.025	0.696
0:28:58.7966 	-0.042	-0.046	0.696
0:28:58.79665	-0.042	-0.041	0.696
0:28:58.7967 	-0.043	-0.020	0.696
0:28:58.79675	-0.043	-0.089	0.695
0:28:58.7968 	-0.042	-0.080	0.696
0:28:58.79685	-0.042	-0.008	0.696
0:28:58.7969 	-0.042	-0.065	0.696
0:28:58.79695	-0.042	-0.077	0.696
0:28:58.797  	-0.042	-0.079	0.696
0:28:58.79705	-0.042	-0.040	0.696
0:28:58.7971 	-0.042	-0.030	0.695
0:28:58.79715	-0.042	-0.045	0.695
0:28:58.7972 	-0.042	-0.035	0.696
0:28:58.79725	-0.042	-0.043	0.695
0:28:58.7973 	-0.042	-0.080	0.696
0:28:58.79735	-0.042	-0.040	0.695
0:28:58.7974 	-0.041	-0.030	0.696
0:28:58.79745	-0.042	-0.034	0.696
0:28:58.7975 	-0.041	0.001 	0.695
0:28:58.79755	-0.041	-0.027	0.696
0:28:58.7976 	-0.041	-0.014	0.695
0:28:58.79765	-0.041	-0.040	0.695
0:28:58.7977 	-0.041	0.015 	0.695
0:28:58.79775	-0.040	-0.008	0.696
0:28:58.7978 	-0.041	-0.017	0.696
0:28:58.79785	-0.040	-0.037	0.695
0:28:58.7979 	-0.040	-0.036	0.695
0:28:58.79795	-0.039	-0.024	0.695
0:28:58.798  	-0.039	-0.044	0.695
0:28:58.79805	-0.039	-0.033	0.695
0:28:58.7981 	-0.039	-0.018	0.696
0:28:58.79815	-0.039	-0.026	0.696
0:28:58.7982 	-0.039	-0.006	0.696
0:28:58.79825	-0.039	-0.060	0.696
0:28:58.7983 	-0.038	-0.021	0.696
0:28:58.79835	-0.039	-0.024	0.695
0:28:58.7984 	-0.038	-0.031	0.695
0:28:58.79845	-0.038	-0.023	0.696
0:28:58.7985 	-0.038	-0.047	0.696
0:28:58.79855	-0.037	-0.005	0.695
0:28:58.7986 	-0.037	-0.020	0.695
0:28:58.79865	-0.036	-0.036	0.695
0:28:58.7987 	-0.036	-0.048	0.696
0:28:58.79875	-0.036	-0.008	0.696
0:28:58.7988 	-0.035	-0.022	0.696
0:28:58.79885	-0.034	-0.072	0.695
0:28:58.7989 	-0.034	-0.063	0.696
0:28:58.79895	-0.033	0.007 	0.695
0:28:58.799  	-0.032	-0.042	0.696
0:28:58.79905	-0.031	0.000 	0.696
0:28:58.7991 	-0.031	-0.050	0.695
0:28:58.79915	-0.030	-0.048	0.695
0:28:58.7992 	-0.029	-0.008	0.696
0:28:58.79925	-0.028	-0.072	0.696
0:28:58.7993 	-0.027	-0.011	0.696
0:28:58.79935	-0.027	-0.029	0.696
0:28:58.7994 	-0.025	-0.038	0.696
0:28:58.79945	-0.025	-0.022	0.695
0:28:58.7995 	-0.024	-0.038	0.696
0:28:58.79955	-0.024	-0.058	0.696
0:28:58.7996 	-0.023	-0.006	0.696
0:28:58.79965	-0.022	-0.038	0.696
0:28:58.7997 	-0.022	-0.051	0.696
0:28:58.79975	-0.021	-0.075	0.696
0:28:58.7998 	-0.021	-0.021	0.696
0:28:58.79985	-0.019	-0.014	0.696
0:28:58.7999 	-0.019	-0.008	0.696
0:28:58.79995	-0.018	0.003 	0.696
0:28:58.8    	-0.018	-0.037	0.696
0:28:58.80005	-0.017	-0.060	0.696
0:28:58.8001 	-0.016	-0.015	0.696
0:28:58.80015	-0.016	-0.064	0.696
0:28:58.8002 	-0.015	-0.009	0.696
0:28:58.80025	-0.015	-0.015	0.697
0:28:58.8003 	-0.014	-0.053	0.697
0:28:58.80035	-0.014	-0.061	0.697
0:28:58.8004 	-0.014	-0.047	0.696
0:28:58.80045	-0.014	-0.053	0.697
0:28:58.8005 	-0.013	-0.019	0.697
0:28:58.80055	-0.013	-0.018	0.697
0:28:58.8006 	-0.013	-0.064	0.696
0:28:58.80065	-0.013	-0.062	0.697
0:28:58.8007 	-0.013	-0.041	0.697
0:28:58.80075	-0.013	-0.067	0.697
0:28:58.8008 	-0.015	-0.054	0.697
0:28:58.80085	-0.015	-0.015	0.697
0:28:58.8009 	-0.016	-0.053	0.697
0:28:58.80095	-0.017	-0.032	0.697
0:28:58.801  	-0.017	-0.004	0.697
0:28:58.80105	-0.019	-0.053	0.697
0:28:58.8011 	-0.020	0.007 	0.697
0:28:58.80115	-0.021	-0.008	0.697
0:28:58.8012 	-0.022	-0.050	0.697
0:28:58.80125	-0.023	-0.014	0.697
0:28:58.8013 	-0.024	-0.030	0.698
0:28:58.80135	-0.025	-0.038	0.698
0:28:58.8014 	-0.026	-0.037	0.697
0:28:58.80145	-0.026	-0.031	0.698
0:28:58.8015 	-0.027	-0.068	0.698
0:28:58.80155	-0.028	-0.005	0.697
0:28:58.8016 	-0.029	0.004 	0.698
0:28:58.80165	-0.030	-0.045	0.698
0:28:58.8017 	-0.030	-0.005	0.698
0:28:58.80175	-0.031	-0.070	0.698
0:28:58.8018 	-0.032	-0.062	0.698
0:28:58.80185	-0.032	-0.037	0.698
0:28:58.8019 	-0.033	-0.019	0.698
0:28:58.80195	-0.033	0.027 	0.698
0:28:58.802  	-0.034	-0.080	0.698
0:28:58.80205	-0.035	-0.029	0.698
0:28:58.8021 	-0.035	-0.042	0.698
0:28:58.80215	-0.035	-0.048	0.698
0:28:58.8022 	-0.036	-0.030	0.698
0:28:58.80225	-0.037	-0.022	0.698
0:28:58.8023 	-0.037	-0.018	0.698
0:28:58.80235	-0.037	-0.041	0.698
0:28:58.8024 	-0.037	-0.047	0.698
0:28:58.80245	-0.038	-0.023	0.698
0:28:58.8025 	-0.038	0.000 	0.698
0:28:58.80255	-0.038	-0.049	0.698
0:28:58.8026 	-0.038	-0.069	0.698
0:28:58.80265	-0.039	-0.055	0.698
0:28:58.8027 	-0.040	-0.056	0.698
0:28:58.80275	-0.040	-0.063	0.698
0:28:58.8028 	-0.040	0.006 	0.698
0:28:58.80285	-0.040	-0.028	0.699
0:28:58.8029 	-0.040	-0.027	0.699
0:28:58.80295	-0.041	-0.039	0.698
0:28:58.803  	-0.040	-0.024	0.699
0:28:58.80305	-0.040	-0.064	0.699
0:28:58.8031 	-0.041	-0.024	0.699
0:28:58.80315	-0.041	-0.029	0.699
0:28:58.8032 	-0.041	-0.030	0.699
0:28:58.80325	-0.041	-0.057	0.699
0:28:58.8033 	-0.041	-0.036	0.699
0:28:58.80335	-0.041	-0.030	0.699
0:28:58.8034 	-0.041	-0.036	0.699
0:28:58.80345	-0.041	-0.008	0.699
0:28:58.8035 	-0.041	-0.031	0.699
0:28:58.80355	-0.042	-0.029	0.699
0:28:58.8036 	-0.041	-0.030	0.699
0:28:58.80365	-0.041	-0.049	0.699
0:28:58.8037 	-0.040	-0.023	0.699
0:28:58.80375	-0.041	-0.029	0.699
0:28:58.8038 	-0.041	-0.060	0.699
0:28:58.80385	-0.041	-0.035	0.699
0:28:58.8039 	-0.041	-0.085	0.699
0:28:58.80395	-0.041	-0.008	0.699
0:28:58.804  	-0.041	-0.049	0.699
0:28:58.80405	-0.041	-0.031	0.700
0:28:58.8041 	-0.041	-0.057	0.700
0:28:58.80415	-0.041	-0.047	0.700
0:28:58.8042 	-0.040	-0.062	0.700
0:28:58.80425	-0.040	-0.048	0.699
0:28:58.8043 	-0.040	-0.041	0.700
0:28:58.80435	-0.040	-0.015	0.700
0:28:58.8044 	-0.040	-0.022	0.700
0:28:58.80445	-0.039	-0.010	0.700
0:28:58.8045 	-0.039	-0.004	0.700
0:28:58.80455	-0.040	-0.044	0.699
0:28:58.8046 	-0.040	-0.044	0.700
0:28:58.80465	-0.039	-0.053	0.700
0:28:58.8047 	-0.039	-0.020	0.700
0:28:58.80475	-0.039	-0.025	0.700
0:28:58.8048 	-0.040	-0.044	0.700
0:28:58.80485	-0.039	-0.025	0.700
0:28:58.8049 	-0.039	-0.029	0.700
0:28:58.80495	-0.039	-0.060	0.700
0:28:58.805  	-0.039	-0.034	0.700
0:28:58.80505	-0.039	-0.062	0.700
0:28:58.8051 	-0.039	-0.072	0.700
0:28:58.80515	-0.039	-0.069	0.700
0:28:58.8052 	-0.039	-0.036	0.700
0:28:58.80525	-0.039	-0.044	0.700
0:28:58.8053 	-0.039	-0.056	0.700
0:28:58.80535	-0.038	-0.040	0.700
0:28:58.8054 	-0.038	-0.030	0.700
0:28:58.80545	-0.038	0.000 	0.700
0:28:58.8055 	-0.038	-0.030	0.700
0:28:58.80555	-0.039	-0.043	0.700
0:28:58.8056 	-0.039	-0.048	0.700
0:28:58.80565	-0.039	-0.025	0.700
0:28:58.8057 	-0.038	-0.071	0.700
0:28:58.80575	-0.038	-0.045	0.700
0:28:58.8058 	-0.039	-0.029	0.700
0:28:58.80585	-0.039	-0.028	0.700
0:28:58.8059 	-0.039	-0.044	0.700
0:28:58.80595	-0.040	-0.012	0.700
0:28:58.806  	-0.040	-0.043	0.700
0:28:58.80605	-0.039	-0.054	0.700
0:28:58.8061 	-0.039	-0.050	0.700
0:28:58.80615	-0.039	-0.044	0.700
0:28:58.8062 	-0.040	-0.055	0.700
0:28:58.80625	-0.039	-0.035	0.700
0:28:58.8063 	-0.039	-0.068	0.700
0:28:58.80635	-0.040	-0.027	0.700
0:28:58.8064 	-0.039	-0.042	0.700
0:28:58.80645	-0.040	-0.052	0.700
0:28:58.8065 	-0.040	-0.037	0.700
0:28:58.80655	-0.040	-0.039	0.700
0:28:58.8066 	-0.040	-0.067	0.700
0:28:58.80665	-0.040	-0.068	0.700
0:28:58.8067 	-0.040	-0.015	0.700
0:28:58.80675	-0.040	-0.050	0.700
0:28:58.8068 	-0.039	-0.043	0.700
0:28:58.80685	-0.040	-0.038	0.700
0:28:58.8069 	-0.039	-0.011	0.700
0:28:58.80695	-0.038	-0.024	0.700
0:28:58.807  	-0.039	-0.013	0.700
0:28:58.80705	-0.039	-0.016	0.700
0:28:58.8071 	-0.038	-0.054	0.700
0:28:58.80715	-0.036	-0.106	0.700
0:28:58.8072 	-0.036	-0.050	0.700
0:28:58.80725	-0.035	-0.025	0.700
0:28:58.8073 	-0.035	-0.002	0.700
0:28:58.80735	-0.034	-0.015	0.700
0:28:58.8074 	-0.033	-0.072	0.700
0:28:58.80745	-0.032	-0.010	0.700
0:28:58.8075 	-0.032	-0.086	0.700
0:28:58.80755	-0.031	-0.031	0.700
0:28:58.8076 	-0.029	-0.072	0.700
0:28:58.80765	-0.028	-0.027	0.700
0:28:58.8077 	-0.028	-0.049	0.700
0:28:58.80775	-0.026	-0.023	0.700
0:28:58.8078 	-0.025	-0.046	0.700
0:28:58.80785	-0.025	-0.025	0.700
0:28:58.8079 	-0.023	-0.096	0.700
0:28:58.80795	-0.023	-0.060	0.700
0:28:58.808  	-0.022	-0.030	0.700
0:28:58.80805	-0.022	0.007 	0.700
0:28:58.8081 	-0.020	0.010 	0.700
0:28:58.80815	-0.020	-0.042	0.700
0:28:58.8082 	-0.019	-0.034	0.700
0:28:58.80825	-0.019	-0.042	0.699
0:28:58.8083 	-0.017	-0.027	0.699
0:28:58.80835	-0.017	-0.004	0.700
0:28:58.8084 	-0.016	-0.022	0.699
0:28:58.80845	-0.016	-0.014	0.699
0:28:58.8085 	-0.015	-0.061	0.699
0:28:58.80855	-0.014	-0.016	0.699
0:28:58.8086 	-0.014	-0.039	0.699
0:28:58.80865	-0.014	-0.061	0.699
0:28:58.8087 	-0.013	-0.016	0.700
0:28:58.80875	-0.013	-0.020	0.699
0:28:58.8088 	-0.012	-0.033	0.699
0:28:58.80885	-0.012	-0.028	0.699
0:28:58.8089 	-0.012	0.006 	0.699
0:28:58.80895	-0.012	-0.054	0.699
0:28:58.809  	-0.012	0.018 	0.699
0:28:58.80905	-0.012	-0.037	0.699
0:28:58.8091 	-0.012	-0.033	0.699
0:28:58.80915	-0.013	-0.037	0.699
0:28:58.8092 	-0.013	-0.040	0.699
0:28:58.80925	-0.014	-0.058	0.699
0:28:58.8093 	-0.015	-0.039	0.698
0:28:58.80935	-0.017	-0.024	0.698
0:28:58.8094 	-0.018	-0.022	0.699
0:28:58.80945	-0.019	-0.021	0.699
0:28:58.8095 	-0.021	-0.058	0.698
0:28:58.80955	-0.021	-0.027	0.698
0:28:58.8096 	-0.022	-0.052	0.698
0:28:58.80965	-0.023	-0.001	0.698
0:28:58.8097 	-0.024	-0.008	0.699
0:28:58.80975	-0.025	-0.064	0.698
0:28:58.8098 	-0.026	-0.016	0.698
0:28:58.80985	-0.026	-0.004	0.698
0:28:58.8099 	-0.027	-0.025	0.698
0:28:58.80995	-0.028	-0.010	0.698
0:28:58.81   	-0.028	-0.041	0.698
0:28:58.81005	-0.029	-0.016	0.698
0:28:58.8101 	-0.030	-0.024	0.698
0:28:58.81015	-0.030	0.008 	0.698
0:28:58.8102 	-0.031	-0.009	0.698
0:28:58.81025	-0.031	-0.014	0.698
0:28:58.8103 	-0.031	-0.025	0.698
0:28:58.81035	-0.031	-0.019	0.698
0:28:58.8104 	-0.032	-0.030	0.697
0:28:58.81045	-0.032	-0.021	0.698
0:28:58.8105 	-0.033	0.027 	0.698
0:28:58.81055	-0.033	-0.038	0.697
0:28:58.8106 	-0.033	-0.032	0.698
0:28:58.81065	-0.034	-0.012	0.698
0:28:58.8107 	-0.033	-0.043	0.698
0:28:58.81075	-0.034	-0.008	0.697
0:28:58.8108 	-0.035	-0.064	0.697
0:28:58.81085	-0.035	-0.007	0.698
0:28:58.8109 	-0.035	-0.025	0.697
0:28:58.81095	-0.036	-0.037	0.697
0:28:58.811  	-0.036	-0.067	0.697
0:28:58.81105	-0.036	-0.062	0.697
0:28:58.8111 	-0.036	-0.033	0.697
0:28:58.81115	-0.036	-0.086	0.697
0:28:58.8112 	-0.036	-0.071	0.697
0:28:58.81125	-0.037	-0.049	0.697
0:28:58.8113 	-0.037	-0.021	0.697
0:28:58.81135	-0.037	-0.015	0.697
0:28:58.8114 	-0.038	-0.063	0.697
0:28:58.81145	-0.038	-0.048	0.697
0:28:58.8115 	-0.038	-0.034	0.697
0:28:58.81155	-0.038	-0.047	0.697
0:28:58.8116 	-0.038	-0.057	0.697
0:28:58.81165	-0.038	-0.088	0.697
0:28:58.8117 	-0.038	-0.059	0.697
0:28:58.81175	-0.039	-0.065	0.697
0:28:58.8118 	-0.039	-0.036	0.696
0:28:58.81185	-0.039	-0.033	0.697
0:28:58.8119 	-0.039	-0.042	0.696
0:28:58.81195	-0.039	-0.067	0.696
0:28:58.812  	-0.040	-0.020	0.696
0:28:58.81205	-0.040	-0.024	0.696
0:28:58.8121 	-0.040	-0.038	0.696
0:28:58.81215	-0.041	-0.090	0.696
0:28:58.8122 	-0.041	-0.050	0.696
0:28:58.81225	-0.041	-0.014	0.696
0:28:58.8123 	-0.041	-0.049	0.696
0:28:58.81235	-0.042	-0.046	0.696
0:28:58.8124 	-0.042	-0.052	0.696
0:28:58.81245	-0.042	-0.003	0.696
0:28:58.8125 	-0.041	-0.049	0.696
0:28:58.81255	-0.041	-0.034	0.696
0:28:58.8126 	-0.041	-0.051	0.696
0:28:58.81265	-0.042	-0.029	0.696
0:28:58.8127 	-0.042	-0.033	0.696
0:28:58.81275	-0.042	-0.048	0.696
0:28:58.8128 	-0.041	-0.031	0.696
0:28:58.81285	-0.042	-0.070	0.696
0:28:58.8129 	-0.043	-0.056	0.696
0:28:58.81295	-0.043	-0.018	0.696
0:28:58.813  	-0.042	-0.044	0.696
0:28:58.81305	-0.043	-0.059	0.696
0:28:58.8131 	-0.042	-0.012	0.696
0:28:58.81315	-0.042	-0.073	0.696
0:28:58.8132 	-0.042	-0.024	0.696
0:28:58.81325	-0.042	-0.071	0.696
0:28:58.8133 	-0.042	-0.056	0.696
0:28:58.81335	-0.043	-0.032	0.696
0:28:58.8134 	-0.043	-0.024	0.696
0:28:58.81345	-0.043	-0.044	0.695
0:28:58.8135 	-0.043	-0.082	0.696
0:28:58.81355	-0.042	0.000 	0.695
0:28:58.8136 	-0.043	-0.064	0.696
0:28:58.81365	-0.043	-0.014	0.696
0:28:58.8137 	-0.042	-0.023	0.696
0:28:58.81375	-0.043	-0.001	0.695
0:28:58.8138 	-0.043	-0.019	0.696
0:28:58.81385	-0.043	-0.047	0.695
0:28:58.8139 	-0.042	-0.022	0.695
0:28:58.81395	-0.042	-0.043	0.695
0:28:58.814  	-0.042	-0.030	0.695
0:28:58.81405	-0.042	-0.052	0.695
0:28:58.8141 	-0.042	-0.036	0.695
0:28:58.81415	-0.042	-0.030	0.695
0:28:58.8142 	-0.042	-0.024	0.695
0:28:58.81425	-0.042	-0.035	0.696
0:28:58.8143 	-0.041	-0.042	0.695
0:28:58.81435	-0.041	-0.029	0.695
0:28:58.8144 	-0.041	-0.090	0.695
0:28:58.81445	-0.040	-0.006	0.696
0:28:58.8145 	-0.040	-0.056	0.696
0:28:58.81455	-0.040	-0.022	0.695
0:28:58.8146 	-0.040	-0.039	0.695
0:28:58.81465	-0.039	-0.034	0.695
0:28:58.8147 	-0.039	-0.034	0.696
0:28:58.81475	-0.040	-0.087	0.695
0:28:58.8148 	-0.039	-0.054	0.696
0:28:58.81485	-0.040	-0.057	0.695
0:28:58.8149 	-0.039	-0.050	0.695
0:28:58.81495	-0.039	-0.028	0.695
0:28:58.815  	-0.039	-0.028	0.696
0:28:58.81505	-0.038	-0.043	0.695
0:28:58.8151 	-0.038	-0.073	0.695
0:28:58.81515	-0.039	-0.026	0.696
0:28:58.8152 	-0.038	-0.025	0.696
0:28:58.81525	-0.037	-0.063	0.695
0:28:58.8153 	-0.038	-0.017	0.695
0:28:58.81535	-0.037	-0.072	0.696
0:28:58.8154 	-0.037	-0.032	0.695
0:28:58.81545	-0.036	-0.063	0.696
0:28:58.8155 	-0.036	-0.008	0.696
0:28:58.81555	-0.035	-0.023	0.696
0:28:58.8156 	-0.034	-0.022	0.695
0:28:58.81565	-0.033	-0.029	0.695
0:28:58.8157 	-0.033	-0.005	0.696
0:28:58.81575	-0.032	-0.038	0.696
0:28:58.8158 	-0.031	0.013 	0.696
0:28:58.81585	-0.030	-0.058	0.696
0:28:58.8159 	-0.030	-0.035	0.696
0:28:58.81595	-0.029	-0.047	0.696
0:28:58.816  	-0.028	-0.017	0.696
0:28:58.81605	-0.028	-0.064	0.696
0:28:58.8161 	-0.026	-0.053	0.696
0:28:58.81615	-0.026	-0.065	0.696
0:28:58.8162 	-0.024	-0.056	0.696
0:28:58.81625	-0.024	-0.030	0.696
0:28:58.8163 	-0.023	-0.049	0.696
0:28:58.81635	-0.022	-0.032	0.696
0:28:58.8164 	-0.022	-0.004	0.696
0:28:58.81645	-0.020	-0.051	0.696
0:28:58.8165 	-0.019	-0.032	0.696
0:28:58.81655	-0.019	-0.061	0.696
0:28:58.8166 	-0.019	-0.079	0.696
0:28:58.81665	-0.018	-0.060	0.696
0:28:58.8167 	-0.018	-0.036	0.696
0:28:58.81675	-0.016	-0.025	0.697
0:28:58.8168 	-0.016	-0.034	0.697
0:28:58.81685	-0.015	-0.069	0.696
0:28:58.8169 	-0.015	-0.013	0.697
0:28:58.81695	-0.015	-0.051	0.696
0:28:58.817  	-0.014	-0.038	0.696
0:28:58.81705	-0.014	-0.042	0.696
0:28:58.8171 	-0.014	-0.065	0.696
0:28:58.81715	-0.014	-0.060	0.696
0:28:58.8172 	-0.013	-0.022	0.696
0:28:58.81725	-0.014	-0.071	0.697
0:28:58.8173 	-0.013	-0.003	0.696
0:28:58.81735	-0.013	-0.050	0.697
0:28:58.8174 	-0.013	-0.062	0.697
0:28:58.81745	-0.014	-0.048	0.697
0:28:58.8175 	-0.015	0.002 	0.697
0:28:58.81755	-0.016	-0.069	0.697
0:28:58.8176 	-0.016	-0.024	0.697
0:28:58.81765	-0.017	-0.005	0.697
0:28:58.8177 	-0.019	-0.023	0.697
0:28:58.81775	-0.021	-0.058	0.697
0:28:58.8178 	-0.021	-0.018	0.697
0:28:58.81785	-0.023	-0.058	0.697
0:28:58.8179 	-0.024	-0.022	0.697
0:28:58.81795	-0.025	-0.034	0.697
0:28:58.818  	-0.025	-0.089	0.697
0:28:58.81805	-0.026	-0.044	0.697
0:28:58.8181 	-0.027	-0.022	0.698
0:28:58.81815	-0.028	-0.043	0.697
0:28:58.8182 	-0.028	-0.059	0.697
0:28:58.81825	-0.029	-0.055	0.698
0:28:58.8183 	-0.030	-0.053	0.698
0:28:58.81835	-0.030	-0.081	0.698
0:28:58.8184 	-0.030	-0.075	0.698
0:28:58.81845	-0.031	-0.009	0.698
0:28:58.8185 	-0.031	-0.048	0.698
0:28:58.81855	-0.033	-0.036	0.698
0:28:58.8186 	-0.033	-0.075	0.698
0:28:58.81865	-0.033	-0.044	0.698
0:28:58.8187 	-0.034	-0.068	0.698
0:28:58.81875	-0.035	-0.032	0.698
0:28:58.8188 	-0.035	-0.004	0.698
0:28:58.81885	-0.035	-0.044	0.698
0:28:58.8189 	-0.036	-0.037	0.698
0:28:58.81895	-0.037	-0.016	0.698
0:28:58.819  	-0.037	-0.007	0.698
0:28:58.81905	-0.037	-0.044	0.698
0:28:58.8191 	-0.037	-0.051	0.698
0:28:58.81915	-0.038	-0.043	0.698
0:28:58.8192 	-0.039	-0.018	0.698
0:28:58.81925	-0.038	-0.061	0.698
0:28:58.8193 	-0.038	-0.075	0.698
0:28:58.81935	-0.039	-0.019	0.699
0:28:58.8194 	-0.038	-0.018	0.698
0:28:58.81945	-0.038	-0.055	0.698
0:28:58.8195 	-0.039	-0.044	0.699
0:28:58.81955	-0.040	-0.063	0.699
0:28:58.8196 	-0.039	-0.052	0.699
0:28:58.81965	-0.040	-0.011	0.698
0:28:58.8197 	-0.040	-0.039	0.699
0:28:58.81975	-0.040	-0.037	0.699
0:28:58.8198 	-0.040	-0.027	0.699
0:28:58.81985	-0.040	-0.071	0.699
0:28:58.8199 	-0.040	-0.030	0.699
0:28:58.81995	-0.041	-0.035	0.699
0:28:58.82   	-0.040	-0.047	0.699
0:28:58.82005	-0.040	-0.013	0.699
0:28:58.8201 	-0.040	-0.021	0.699
0:28:58.82015	-0.040	-0.013	0.699
0:28:58.8202 	-0.041	-0.031	0.699
0:28:58.82025	-0.040	0.004 	0.699
0:28:58.8203 	-0.041	-0.076	0.699
0:28:58.82035	-0.040	-0.041	0.699
0:28:58.8204 	-0.040	-0.034	0.698
0:28:58.82045	-0.040	-0.068	0.699
0:28:58.8205 	-0.040	-0.006	0.699
0:28:58.82055	-0.040	-0.055	0.700
0:28:58.8206 	-0.040	0.007 	0.699
0:28:58.82065	-0.040	-0.059	0.699
0:28:58.8207 	-0.040	-0.068	0.700
0:28:58.82075	-0.039	-0.050	0.699
0:28:58.8208 	-0.040	-0.029	0.699
0:28:58.82085	-0.040	-0.058	0.699
0:28:58.8209 	-0.039	-0.047	0.699
0:28:58.82095	-0.039	-0.057	0.699
0:28:58.821  	-0.039	-0.069	0.699
0:28:58.82105	-0.039	-0.050	0.700
0:28:58.8211 	-0.039	-0.062	0.700
0:28:58.82115	-0.039	-0.065	0.700
0:28:58.8212 	-0.039	-0.017	0.700
0:28:58.82125	-0.039	-0.046	0.700
0:28:58.8213 	-0.039	-0.023	0.700
0:28:58.82135	-0.038	-0.043	0.700
0:28:58.8214 	-0.039	-0.049	0.700
0:28:58.82145	-0.038	-0.028	0.700
0:28:58.8215 	-0.038	-0.067	0.699
0:28:58.82155	-0.038	-0.017	0.700
0:28:58.8216 	-0.038	-0.010	0.700
0:28:58.82165	-0.038	-0.043	0.700
0:28:58.8217 	-0.038	-0.040	0.700
0:28:58.82175	-0.038	-0.049	0.700
0:28:58.8218 	-0.039	-0.077	0.700
0:28:58.82185	-0.039	-0.040	0.700
0:28:58.8219 	-0.039	-0.022	0.700
0:28:58.82195	-0.039	-0.031	0.700
0:28:58.822  	-0.039	-0.051	0.700
0:28:58.82205	-0.039	-0.058	0.700
0:28:58.8221 	-0.039	-0.028	0.700
0:28:58.82215	-0.038	-0.054	0.700
0:28:58.8222 	-0.039	-0.048	0.700
0:28:58.82225	-0.038	-0.038	0.700
0:28:58.8223 	-0.038	-0.002	0.700
0:28:58.82235	-0.039	-0.033	0.700
0:28:58.8224 	-0.039	-0.057	0.700
0:28:58.82245	-0.039	-0.067	0.700
0:28:58.8225 	-0.039	-0.074	0.700
0:28:58.82255	-0.039	-0.052	0.700
0:28:58.8226 	-0.039	-0.056	0.700
0:28:58.82265	-0.039	-0.044	0.700
0:28:58.8227 	-0.040	-0.063	0.700
0:28:58.82275	-0.039	-0.069	0.700
0:28:58.8228 	-0.040	-0.030	0.700
0:28:58.82285	-0.040	-0.047	0.700
0:28:58.8229 	-0.040	-0.056	0.700
0:28:58.82295	-0.040	-0.073	0.700
0:28:58.823  	-0.040	-0.031	0.700
0:28:58.82305	-0.040	-0.091	0.700
0:28:58.8231 	-0.040	-0.043	0.700
0:28:58.82315	-0.040	-0.060	0.700
0:28:58.8232 	-0.040	-0.036	0.700
0:28:58.82325	-0.040	-0.038	0.700
0:28:58.8233 	-0.039	-0.009	0.700
0:28:58.82335	-0.039	-0.091	0.700
0:28:58.8234 	-0.040	-0.033	0.700
0:28:58.82345	-0.040	-0.070	0.700
0:28:58.8235 	-0.039	-0.076	0.700
0:28:58.82355	-0.039	-0.040	0.700
0:28:58.8236 	-0.039	-0.041	0.700
0:28:58.82365	-0.038	0.001 	0.700
0:28:58.8237 	-0.038	-0.060	0.700
0:28:58.82375	-0.037	-0.061	0.700
0:28:58.8238 	-0.037	-0.022	0.700
0:28:58.82385	-0.037	-0.026	0.700
0:28:58.8239 	-0.036	-0.035	0.700
0:28:58.82395	-0.035	-0.045	0.700
0:28:58.824  	-0.035	-0.039	0.700
0:28:58.82405	-0.033	-0.086	0.700
0:28:58.8241 	-0.032	-0.069	0.700
0:28:58.82415	-0.032	0.002 	0.700
0:28:58.8242 	-0.031	-0.042	0.700
0:28:58.82425	-0.030	-0.044	0.700
0:28:58.8243 	-0.029	-0.034	0.700
0:28:58.82435	-0.028	-0.043	0.700
0:28:58.8244 	-0.027	-0.037	0.700
0:28:58.82445	-0.026	-0.018	0.700
0:28:58.8245 	-0.025	-0.062	0.700
0:28:58.82455	-0.024	-0.078	0.700
0:28:58.8246 	-0.023	-0.022	0.700
0:28:58.82465	-0.022	-0.021	0.700
0:28:58.8247 	-0.022	-0.020	0.700
0:28:58.82475	-0.021	-0.070	0.700
0:28:58.8248 	-0.020	-0.001	0.699
0:28:58.82485	-0.018	0.001 	0.699
0:28:58.8249 	-0.018	-0.084	0.699
0:28:58.82495	-0.017	-0.085	0.699
0:28:58.825  	-0.016	-0.046	0.699
0:28:58.82505	-0.015	-0.031	0.699
0:28:58.8251 	-0.015	-0.044	0.699
0:28:58.82515	-0.014	-0.034	0.699
0:28:58.8252 	-0.014	-0.040	0.699
0:28:58.82525	-0.014	-0.027	0.699
0:28:58.8253 	-0.013	-0.065	0.699
0:28:58.82535	-0.012	-0.014	0.699
0:28:58.8254 	-0.012	-0.038	0.699
0:28:58.82545	-0.012	0.030 	0.699
0:28:58.8255 	-0.012	-0.021	0.699
0:28:58.82555	-0.011	-0.035	0.699
0:28:58.8256 	-0.011	-0.054	0.699
0:28:58.82565	-0.012	-0.058	0.699
0:28:58.8257 	-0.011	-0.053	0.699
0:28:58.82575	-0.012	-0.012	0.698
0:28:58.8258 	-0.012	-0.037	0.699
0:28:58.82585	-0.013	-0.015	0.699
0:28:58.8259 	-0.014	-0.006	0.698
0:28:58.82595	-0.015	-0.042	0.698
0:28:58.826  	-0.017	-0.050	0.699
0:28:58.82605	-0.018	-0.041	0.698
0:28:58.8261 	-0.019	-0.048	0.698
0:28:58.82615	-0.020	-0.025	0.698
0:28:58.8262 	-0.021	-0.062	0.698
0:28:58.82625	-0.022	-0.037	0.699
0:28:58.8263 	-0.023	-0.021	0.698
0:28:58.82635	-0.024	-0.049	0.698
0:28:58.8264 	-0.025	-0.042	0.698
0:28:58.82645	-0.025	-0.073	0.698
0:28:58.8265 	-0.027	-0.078	0.698
0:28:58.82655	-0.027	-0.056	0.698
0:28:58.8266 	-0.028	-0.021	0.698
0:28:58.82665	-0.028	-0.020	0.698
0:28:58.8267 	-0.028	-0.027	0.698
0:28:58.82675	-0.030	-0.041	0.698
0:28:58.8268 	-0.030	-0.023	0.698
0:28:58.82685	-0.030	-0.025	0.698
0:28:58.8269 	-0.031	0.000 	0.698
0:28:58.82695	-0.031	-0.028	0.698
0:28:58.827  	-0.031	-0.044	0.698
0:28:58.82705	-0.032	-0.023	0.698
0:28:58.8271 	-0.032	-0.024	0.698
0:28:58.82715	-0.032	-0.018	0.698
0:28:58.8272 	-0.033	-0.020	0.697
0:28:58.82725	-0.034	-0.021	0.697
0:28:58.8273 	-0.034	-0.047	0.697
0:28:58.82735	-0.034	-0.027	0.697
0:28:58.8274 	-0.034	-0.024	0.698
0:28:58.82745	-0.035	-0.089	0.698
0:28:58.8275 	-0.035	-0.075	0.697
0:28:58.82755	-0.035	-0.047	0.697
0:28:58.8276 	-0.035	-0.079	0.697
0:28:58.82765	-0.036	0.020 	0.697
0:28:58.8277 	-0.036	-0.046	0.697
0:28:58.82775	-0.036	-0.073	0.697
0:28:58.8278 	-0.036	-0.062	0.697
0:28:58.82785	-0.037	-0.029	0.697
0:28:58.8279 	-0.037	-0.034	0.697
0:28:58.82795	-0.038	-0.054	0.697
0:28:58.828  	-0.038	-0.070	0.697
0:28:58.82805	-0.039	-0.030	0.697
0:28:58.8281 	-0.038	-0.034	0.697
0:28:58.82815	-0.038	-0.036	0.697
0:28:58.8282 	-0.038	-0.010	0.697
0:28:58.82825	-0.038	-0.030	0.697
0:28:58.8283 	-0.038	-0.022	0.697
0:28:58.82835	-0.038	-0.025	0.697
0:28:58.8284 	-0.039	-0.067	0.697
0:28:58.82845	-0.039	-0.024	0.696
0:28:58.8285 	-0.039	-0.059	0.697
0:28:58.82855	-0.039	-0.072	0.696
0:28:58.8286 	-0.039	-0.036	0.696
0:28:58.82865	-0.039	-0.004	0.696
0:28:58.8287 	-0.040	-0.058	0.696
0:28:58.82875	-0.040	-0.055	0.696
0:28:58.8288 	-0.040	-0.009	0.696
0:28:58.82885	-0.040	-0.089	0.696
0:28:58.8289 	-0.040	-0.063	0.696
0:28:58.82895	-0.040	-0.036	0.696
0:28:58.829  	-0.041	-0.046	0.696
0:28:58.82905	-0.041	-0.050	0.696
0:28:58.8291 	-0.042	-0.010	0.696
0:28:58.82915	-0.042	-0.015	0.696
0:28:58.8292 	-0.042	-0.040	0.696
0:28:58.82925	-0.043	-0.085	0.696
0:28:58.8293 	-0.042	-0.057	0.696
0:28:58.82935	-0.042	-0.053	0.696
0:28:58.8294 	-0.043	-0.050	0.696
0:28:58.82945	-0.043	-0.046	0.696
0:28:58.8295 	-0.043	-0.079	0.696
0:28:58.82955	-0.043	-0.078	0.696
0:28:58.8296 	-0.043	-0.056	0.696
0:28:58.82965	-0.043	-0.052	0.696
0:28:58.8297 	-0.044	-0.016	0.696
0:28:58.82975	-0.044	-0.036	0.696
0:28:58.8298 	-0.043	-0.027	0.695
0:28:58.82985	-0.044	-0.026	0.696
0:28:58.8299 	-0.044	-0.079	0.695
0:28:58.82995	-0.043	-0.078	0.696
0:28:58.83   	-0.044	-0.047	0.696
0:28:58.83005	-0.044	-0.033	0.696
0:28:58.8301 	-0.044	-0.041	0.695
0:28:58.83015	-0.043	-0.028	0.695
0:28:58.8302 	-0.044	-0.056	0.696
0:28:58.83025	-0.044	-0.015	0.696
0:28:58.8303 	-0.043	-0.035	0.696
0:28:58.83035	-0.044	-0.033	0.696
0:28:58.8304 	-0.044	-0.046	0.695
0:28:58.83045	-0.044	-0.015	0.695
0:28:58.8305 	-0.044	-0.037	0.695
0:28:58.83055	-0.044	-0.043	0.695
0:28:58.8306 	-0.044	-0.034	0.696
0:28:58.83065	-0.043	-0.043	0.695
0:28:58.8307 	-0.043	-0.036	0.695
0:28:58.83075	-0.044	-0.039	0.695
0:28:58.8308 	-0.043	-0.021	0.695
0:28:58.83085	-0.043	-0.028	0.695
0:28:58.8309 	-0.042	-0.089	0.695
0:28:58.83095	-0.042	-0.047	0.695
0:28:58.831  	-0.042	-0.051	0.695
0:28:58.83105	-0.042	-0.031	0.695
0:28:58.8311 	-0.042	-0.015	0.695
0:28:58.83115	-0.042	-0.045	0.695
0:28:58.8312 	-0.041	-0.031	0.695
0:28:58.83125	-0.041	-0.012	0.695
0:28:58.8313 	-0.040	-0.012	0.695
0:28:58.83135	-0.040	-0.035	0.695
0:28:58.8314 	-0.040	-0.014	0.695
0:28:58.83145	-0.040	-0.019	0.695
0:28:58.8315 	-0.039	-0.045	0.695
0:28:58.83155	-0.040	-0.022	0.696
0:28:58.8316 	-0.038	-0.045	0.695
0:28:58.83165	-0.039	-0.039	0.696
0:28:58.8317 	-0.039	-0.072	0.695
0:28:58.83175	-0.039	0.015 	0.695
0:28:58.8318 	-0.039	0.002 	0.695
0:28:58.83185	-0.038	-0.017	0.695
0:28:58.8319 	-0.038	-0.046	0.695
0:28:58.83195	-0.038	-0.082	0.695
0:28:58.832  	-0.037	-0.023	0.695
0:28:58.83205	-0.037	-0.044	0.695
0:28:58.8321 	-0.036	-0.014	0.695
0:28:58.83215	-0.035	-0.080	0.696
0:28:58.8322 	-0.035	-0.017	0.695
0:28:58.83225	-0.033	-0.026	0.696
0:28:58.8323 	-0.033	-0.022	0.695
0:28:58.83235	-0.032	-0.047	0.695
0:28:58.8324 	-0.031	-0.033	0.695
0:28:58.83245	-0.031	-0.016	0.695
0:28:58.8325 	-0.029	-0.029	0.695
0:28:58.83255	-0.029	-0.001	0.696
0:28:58.8326 	-0.028	-0.050	0.696
0:28:58.83265	-0.027	-0.081	0.696
0:28:58.8327 	-0.026	-0.037	0.696
0:28:58.83275	-0.025	-0.029	0.696
0:28:58.8328 	-0.024	-0.020	0.695
0:28:58.83285	-0.023	-0.028	0.696
0:28:58.8329 	-0.023	-0.054	0.696
0:28:58.83295	-0.023	-0.025	0.696
0:28:58.833  	-0.022	-0.050	0.696
0:28:58.83305	-0.021	-0.037	0.696
0:28:58.8331 	-0.020	-0.075	0.696
0:28:58.83315	-0.019	-0.071	0.696
0:28:58.8332 	-0.019	-0.031	0.696
0:28:58.83325	-0.018	-0.060	0.696
0:28:58.8333 	-0.018	-0.003	0.696
0:28:58.83335	-0.018	-0.074	0.696
0:28:58.8334 	-0.017	-0.062	0.696
0:28:58.83345	-0.016	-0.027	0.696
0:28:58.8335 	-0.015	-0.071	0.696
0:28:58.83355	-0.015	-0.058	0.696
0:28:58.8336 	-0.015	-0.007	0.696
0:28:58.83365	-0.014	-0.038	0.696
0:28:58.8337 	-0.013	-0.048	0.696
0:28:58.83375	-0.013	-0.041	0.696
0:28:58.8338 	-0.013	-0.073	0.697
0:28:58.83385	-0.012	-0.050	0.697
0:28:58.8339 	-0.012	0.000 	0.696
0:28:58.83395	-0.013	-0.045	0.696
0:28:58.834  	-0.013	-0.011	0.696
0:28:58.83405	-0.014	0.025 	0.697
0:28:58.8341 	-0.014	-0.065	0.697
0:28:58.83415	-0.014	-0.044	0.697
0:28:58.8342 	-0.015	-0.026	0.697
0:28:58.83425	-0.016	-0.005	0.697
0:28:58.8343 	-0.018	-0.008	0.697
0:28:58.83435	-0.019	-0.048	0.697
0:28:58.8344 	-0.020	-0.066	0.697
0:28:58.83445	-0.021	-0.048	0.697
0:28:58.8345 	-0.023	-0.022	0.697
0:28:58.83455	-0.024	-0.056	0.697
0:28:58.8346 	-0.025	-0.062	0.697
0:28:58.83465	-0.025	-0.033	0.697
0:28:58.8347 	-0.027	-0.087	0.697
0:28:58.83475	-0.028	-0.035	0.697
0:28:58.8348 	-0.028	-0.040	0.697
0:28:58.83485	-0.029	-0.005	0.697
0:28:58.8349 	-0.030	-0.066	0.698
0:28:58.83495	-0.031	-0.015	0.698
0:28:58.835  	-0.032	-0.073	0.698
0:28:58.83505	-0.032	-0.033	0.698
0:28:58.8351 	-0.033	-0.049	0.697
0:28:58.83515	-0.033	-0.042	0.698
0:28:58.8352 	-0.034	-0.045	0.698
0:28:58.83525	-0.034	-0.034	0.698
0:28:58.8353 	-0.035	-0.018	0.698
0:28:58.83535	-0.035	-0.071	0.698
0:28:58.8354 	-0.035	-0.052	0.698
0:28:58.83545	-0.036	-0.052	0.698
0:28:58.8355 	-0.036	-0.082	0.698
0:28:58.83555	-0.036	-0.088	0.698
0:28:58.8356 	-0.037	-0.033	0.698
0:28:58.83565	-0.036	-0.003	0.698
0:28:58.8357 	-0.038	-0.041	0.698
0:28:58.83575	-0.037	-0.056	0.698
0:28:58.8358 	-0.037	-0.001	0.698
0:28:58.83585	-0.038	-0.043	0.698
0:28:58.8359 	-0.038	-0.064	0.698
0:28:58.83595	-0.038	-0.076	0.698
0:28:58.836  	-0.039	-0.069	0.698
0:28:58.83605	-0.039	-0.055	0.699
0:28:58.8361 	-0.039	-0.052	0.698
0:28:58.83615	-0.039	-0.058	0.698
0:28:58.8362 	-0.040	-0.052	0.699
0:28:58.83625	-0.040	-0.058	0.698
0:28:58.8363 	-0.040	-0.032	0.699
0:28:58.83635	-0.040	-0.040	0.698
0:28:58.8364 	-0.040	-0.044	0.699
0:28:58.83645	-0.040	-0.025	0.698
0:28:58.8365 	-0.040	-0.006	0.699
0:28:58.83655	-0.040	-0.062	0.698
0:28:58.8366 	-0.040	0.001 	0.699
0:28:58.83665	-0.040	-0.060	0.699
0:28:58.8367 	-0.040	-0.059	0.699
0:28:58.83675	-0.040	-0.043	0.699
0:28:58.8368 	-0.040	-0.029	0.699
0:28:58.83685	-0.040	-0.066	0.699
0:28:58.8369 	-0.040	-0.052	0.699
0:28:58.83695	-0.040	-0.043	0.699
0:28:58.837  	-0.040	-0.026	0.699
0:28:58.83705	-0.040	-0.055	0.699
0:28:58.8371 	-0.040	-0.040	0.699
0:28:58.83715	-0.040	-0.054	0.699
0:28:58.8372 	-0.040	-0.008	0.699
0:28:58.83725	-0.040	-0.047	0.699
0:28:58.8373 	-0.040	-0.064	0.699
0:28:58.83735	-0.040	-0.059	0.700
0:28:58.8374 	-0.041	-0.051	0.699
0:28:58.83745	-0.040	-0.041	0.700
0:28:58.8375 	-0.040	-0.033	0.700
0:28:58.83755	-0.039	-0.039	0.699
0:28:58.8376 	-0.039	-0.063	0.700
0:28:58.83765	-0.039	-0.056	0.699
0:28:58.8377 	-0.039	-0.048	0.699
0:28:58.83775	-0.039	-0.039	0.700
0:28:58.8378 	-0.039	-0.029	0.700
0:28:58.83785	-0.039	-0.032	0.700
0:28:58.8379 	-0.039	-0.056	0.700
0:28:58.83795	-0.039	-0.068	0.699
0:28:58.838  	-0.039	-0.051	0.700
0:28:58.83805	-0.039	-0.017	0.700
0:28:58.8381 	-0.038	-0.085	0.700
0:28:58.83815	-0.038	-0.041	0.700
0:28:58.8382 	-0.038	-0.040	0.700
0:28:58.83825	-0.039	-0.036	0.700
0:28:58.8383 	-0.038	-0.041	0.700
0:28:58.83835	-0.038	-0.019	0.700
0:28:58.8384 	-0.038	-0.022	0.700
0:28:58.83845	-0.038	-0.045	0.700
0:28:58.8385 	-0.038	-0.026	0.700
0:28:58.83855	-0.039	-0.004	0.700
0:28:58.8386 	-0.038	0.006 	0.700
0:28:58.83865	-0.038	-0.022	0.700
0:28:58.8387 	-0.038	-0.014	0.700
0:28:58.83875	-0.037	-0.027	0.700
0:28:58.8388 	-0.038	-0.048	0.700
0:28:58.83885	-0.038	-0.023	0.700
0:28:58.8389 	-0.038	-0.040	0.700
0:28:58.83895	-0.037	0.010 	0.700
0:28:58.839  	-0.038	-0.071	0.700
0:28:58.83905	-0.037	-0.051	0.700
0:28:58.8391 	-0.038	-0.022	0.700
0:28:58.83915	-0.038	-0.074	0.700
0:28:58.8392 	-0.038	-0.032	0.700
0:28:58.83925	-0.038	-0.066	0.700
0:28:58.8393 	-0.039	-0.062	0.700
0:28:58.83935	-0.038	-0.044	0.700
0:28:58.8394 	-0.039	-0.011	0.700
0:28:58.83945	-0.039	-0.036	0.700
0:28:58.8395 	-0.039	-0.011	0.700
0:28:58.83955	-0.039	-0.053	0.700
0:28:58.8396 	-0.039	-0.011	0.700
0:28:58.83965	-0.039	-0.044	0.700
0:28:58.8397 	-0.039	0.000 	0.700
0:28:58.83975	-0.039	-0.070	0.700
0:28:58.8398 	-0.039	-0.025	0.700
0:28:58.83985	-0.039	-0.053	0.700
0:28:58.8399 	-0.039	-0.059	0.700
0:28:58.83995	-0.040	-0.014	0.700
0:28:58.84   	-0.039	-0.089	0.700
0:28:58.84005	-0.040	-0.019	0.700
0:28:58.8401 	-0.039	-0.027	0.700
0:28:58.84015	-0.039	-0.070	0.700
0:28:58.8402 	-0.039	-0.062	0.700
0:28:58.84025	-0.038	-0.021	0.700
0:28:58.8403 	-0.037	-0.015	0.700
0:28:58.84035	-0.037	-0.018	0.700
0:28:58.8404 	-0.036	-0.005	0.700
0:28:58.84045	-0.036	-0.058	0.700
0:28:58.8405 	-0.035	-0.041	0.700
0:28:58.84055	-0.034	-0.052	0.700
0:28:58.8406 	-0.034	-0.026	0.700
0:28:58.84065	-0.033	0.008 	0.700
0:28:58.8407 	-0.032	-0.051	0.700
0:28:58.84075	-0.031	0.005 	0.700
0:28:58.8408 	-0.031	0.003 	0.700
0:28:58.84085	-0.030	-0.059	0.700
0:28:58.8409 	-0.029	0.003 	0.700
0:28:58.84095	-0.028	-0.007	0.700
0:28:58.841  	-0.027	-0.020	0.700
0:28:58.84105	-0.026	-0.038	0.700
0:28:58.8411 	-0.025	-0.056	0.700
0:28:58.84115	-0.024	0.000 	0.699
0:28:58.8412 	-0.024	-0.001	0.700
0:28:58.84125	-0.023	-0.048	0.700
0:28:58.8413 	-0.022	-0.076	0.699
0:28:58.84135	-0.021	-0.015	0.700
0:28:58.8414 	-0.020	-0.067	0.700
0:28:58.84145	-0.020	-0.038	0.700
0:28:58.8415 	-0.019	-0.054	0.700
0:28:58.84155	-0.017	-0.056	0.700
0:28:58.8416 	-0.018	0.025 	0.699
0:28:58.84165	-0.017	-0.051	0.699
0:28:58.8417 	-0.016	-0.055	0.699
0:28:58.84175	-0.015	-0.060	0.699
0:28:58.8418 	-0.015	-0.055	0.699
0:28:58.84185	-0.015	-0.055	0.699
0:28:58.8419 	-0.014	-0.048	0.699
0:28:58.84195	-0.014	-0.060	0.699
0:28:58.842  	-0.012	0.006 	0.699
0:28:58.84205	-0.013	-0.012	0.699
0:28:58.8421 	-0.012	-0.087	0.699
0:28:58.84215	-0.012	-0.030	0.699
0:28:58.8422 	-0.012	-0.011	0.699
0:28:58.84225	-0.012	0.007 	0.699
0:28:58.8423 	-0.012	-0.033	0.699
0:28:58.84235	-0.013	-0.028	0.699
0:28:58.8424 	-0.012	-0.047	0.699
0:28:58.84245	-0.013	-0.020	0.699
0:28:58.8425 	-0.013	-0.023	0.699
0:28:58.84255	-0.014	-0.059	0.698
0:28:58.8426 	-0.015	-0.061	0.699
0:28:58.84265	-0.016	-0.010	0.698
0:28:58.8427 	-0.017	-0.012	0.698
0:28:58.84275	-0.018	-0.048	0.698
0:28:58.8428 	-0.020	-0.026	0.698
0:28:58.84285	-0.021	-0.045	0.698
0:28:58.8429 	-0.022	-0.039	0.698
0:28:58.84295	-0.023	0.006 	0.698
0:28:58.843  	-0.024	-0.057	0.698
0:28:58.84305	-0.025	-0.024	0.698
0:28:58.8431 	-0.025	-0.009	0.698
0:28:58.84315	-0.026	-0.045	0.698
0:28:58.8432 	-0.027	-0.048	0.698
0:28:58.84325	-0.028	-0.022	0.698
0:28:58.8433 	-0.028	-0.039	0.698
0:28:58.84335	-0.028	-0.006	0.698
0:28:58.8434 	-0.029	-0.044	0.698
0:28:58.84345	-0.030	-0.031	0.698
0:28:58.8435 	-0.030	-0.039	0.698
0:28:58.84355	-0.031	-0.023	0.698
0:28:58.8436 	-0.031	0.002 	0.698
0:28:58.84365	-0.031	-0.087	0.698
0:28:58.8437 	-0.032	-0.003	0.698
0:28:58.84375	-0.032	-0.061	0.698
0:28:58.8438 	-0.033	-0.019	0.698
0:28:58.84385	-0.033	-0.020	0.698
0:28:58.8439 	-0.033	-0.061	0.698
0:28:58.84395	-0.034	-0.012	0.698
0:28:58.844  	-0.033	-0.026	0.697
0:28:58.84405	-0.034	0.006 	0.697
0:28:58.8441 	-0.034	-0.002	0.697
0:28:58.84415	-0.034	-0.041	0.697
0:28:58.8442 	-0.034	-0.005	0.697
0:28:58.84425	-0.035	-0.029	0.697
0:28:58.8443 	-0.035	-0.012	0.697
0:28:58.84435	-0.035	-0.074	0.697
0:28:58.8444 	-0.035	-0.032	0.697
0:28:58.84445	-0.036	-0.051	0.697
0:28:58.8445 	-0.036	-0.043	0.697
0:28:58.84455	-0.037	-0.051	0.697
0:28:58.8446 	-0.036	-0.022	0.697
0:28:58.84465	-0.037	-0.047	0.697
0:28:58.8447 	-0.037	-0.056	0.697
0:28:58.84475	-0.038	-0.063	0.697
0:28:58.8448 	-0.037	-0.016	0.697
0:28:58.84485	-0.037	-0.044	0.697
0:28:58.8449 	-0.038	-0.082	0.697
0:28:58.84495	-0.038	-0.022	0.697
0:28:58.845  	-0.039	-0.043	0.696
0:28:58.84505	-0.038	-0.088	0.697
0:28:58.8451 	-0.039	-0.047	0.697
0:28:58.84515	-0.039	-0.041	0.697
0:28:58.8452 	-0.039	-0.005	0.696
0:28:58.84525	-0.040	-0.016	0.697
0:28:58.8453 	-0.040	-0.058	0.696
0:28:58.84535	-0.040	-0.058	0.696
0:28:58.8454 	-0.040	-0.045	0.696
0:28:58.84545	-0.041	-0.032	0.696
0:28:58.8455 	-0.041	-0.062	0.696
0:28:58.84555	-0.041	0.002 	0.696
0:28:58.8456 	-0.041	-0.043	0.696
0:28:58.84565	-0.041	-0.025	0.696
0:28:58.8457 	-0.041	-0.009	0.696
0:28:58.84575	-0.042	-0.012	0.696
0:28:58.8458 	-0.041	-0.053	0.696
0:28:58.84585	-0.041	-0.040	0.696
0:28:58.8459 	-0.042	-0.030	0.696
0:28:58.84595	-0.042	-0.039	0.696
0:28:58.846  	-0.042	-0.024	0.696
0:28:58.84605	-0.043	-0.024	0.696
0:28:58.8461 	-0.043	-0.039	0.696
0:28:58.84615	-0.042	-0.030	0.696
0:28:58.8462 	-0.042	-0.037	0.695
0:28:58.84625	-0.042	-0.037	0.696
0:28:58.8463 	-0.042	-0.082	0.696
0:28:58.84635	-0.042	-0.058	0.696
0:28:58.8464 	-0.043	-0.081	0.696
0:28:58.84645	-0.043	-0.026	0.696
0:28:58.8465 	-0.043	-0.046	0.696
0:28:58.84655	-0.043	-0.075	0.696
0:28:58.8466 	-0.043	-0.047	0.696
0:28:58.84665	-0.042	-0.015	0.696
0:28:58.8467 	-0.042	-0.061	0.696
0:28:58.84675	-0.043	-0.050	0.695
0:28:58.8468 	-0.043	-0.017	0.696
0:28:58.84685	-0.043	-0.059	0.695
0:28:58.8469 	-0.044	-0.075	0.696
0:28:58.84695	-0.043	-0.040	0.696
0:28:58.847  	-0.043	-0.037	0.695
0:28:58.84705	-0.042	-0.042	0.696
0:28:58.8471 	-0.043	0.002 	0.696
0:28:58.84715	-0.043	-0.050	0.695
0:28:58.8472 	-0.043	-0.057	0.696
0:28:58.84725	-0.042	-0.051	0.695
0:28:58.8473 	-0.042	-0.024	0.695
0:28:58.84735	-0.043	-0.090	0.695
0:28:58.8474 	-0.042	-0.034	0.695
0:28:58.84745	-0.042	-0.051	0.696
0:28:58.8475 	-0.042	-0.028	0.695
0:28:58.84755	-0.042	-0.025	0.695
0:28:58.8476 	-0.041	0.011 	0.695
0:28:58.84765	-0.041	-0.042	0.695
0:28:58.8477 	-0.041	-0.027	0.695
0:28:58.84775	-0.042	-0.038	0.695
0:28:58.8478 	-0.040	-0.010	0.695
0:28:58.84785	-0.041	-0.041	0.695
0:28:58.8479 	-0.040	-0.021	0.695
0:28:58.84795	-0.040	-0.057	0.695
0:28:58.848  	-0.040	-0.047	0.696
0:28:58.84805	-0.039	-0.052	0.695
0:28:58.8481 	-0.039	-0.049	0.695
0:28:58.84815	-0.039	-0.017	0.695
0:28:58.8482 	-0.039	-0.062	0.695
0:28:58.84825	-0.039	-0.064	0.696
0:28:58.8483 	-0.039	-0.050	0.695
0:28:58.84835	-0.039	-0.026	0.695
0:28:58.8484 	-0.039	-0.072	0.695
0:28:58.84845	-0.039	-0.026	0.695
0:28:58.8485 	-0.038	-0.049	0.695
0:28:58.84855	-0.038	-0.036	0.695
0:28:58.8486 	-0.038	-0.005	0.696
0:28:58.84865	-0.037	-0.069	0.695
0:28:58.8487 	-0.037	-0.016	0.695
0:28:58.84875	-0.036	-0.028	0.695
0:28:58.8488 	-0.035	0.008 	0.695
0:28:58.84885	-0.035	-0.050	0.695
0:28:58.8489 	-0.034	-0.045	0.695
0:28:58.84895	-0.033	-0.040	0.695
0:28:58.849  	-0.033	-0.045	0.695
0:28:58.84905	-0.032	-0.062	0.695
0:28:58.8491 	-0.031	-0.019	0.696
0:28:58.84915	-0.030	0.003 	0.695
0:28:58.8492 	-0.029	-0.042	0.695
0:28:58.84925	-0.028	0.000 	0.696
0:28:58.8493 	-0.027	-0.074	0.695
0:28:58.84935	-0.027	-0.014	0.696
0:28:58.8494 	-0.026	-0.036	0.695
0:28:58.84945	-0.025	-0.011	0.696
0:28:58.8495 	-0.025	-0.013	0.696
0:28:58.84955	-0.023	-0.040	0.696
0:28:58.8496 	-0.023	-0.045	0.695
0:28:58.84965	-0.021	-0.060	0.696
0:28:58.8497 	-0.022	-0.052	0.696
0:28:58.84975	-0.021	0.006 	0.696
0:28:58.8498 	-0.020	-0.015	0.695
0:28:58.84985	-0.019	-0.040	0.696
0:28:58.8499 	-0.018	-0.003	0.696
0:28:58.84995	-0.018	-0.025	0.696
0:28:58.85   	-0.018	-0.019	0.696
0:28:58.85005	-0.016	-0.038	0.696
0:28:58.8501 	-0.016	-0.050	0.696
0:28:58.85015	-0.016	-0.017	0.696
0:28:58.8502 	-0.015	-0.055	0.696
0:28:58.85025	-0.015	-0.043	0.696
0:28:58.8503 	-0.015	-0.038	0.696
0:28:58.85035	-0.015	-0.037	0.697
0:28:58.8504 	-0.014	-0.034	0.696
0:28:58.85045	-0.013	-0.053	0.696
0:28:58.8505 	-0.014	-0.065	0.696
0:28:58.85055	-0.013	-0.038	0.696
0:28:58.8506 	-0.013	-0.023	0.696
0:28:58.85065	-0.014	-0.026	0.696
0:28:58.8507 	-0.013	-0.053	0.697
0:28:58.85075	-0.015	-0.047	0.696
0:28:58.8508 	-0.015	-0.046	0.697
0:28:58.85085	-0.017	-0.039	0.697
0:28:58.8509 	-0.017	-0.028	0.697
0:28:58.85095	-0.018	-0.012	0.697
0:28:58.851  	-0.018	-0.021	0.697
0:28:58.85105	-0.019	-0.018	0.697
0:28:58.8511 	-0.021	-0.052	0.697
0:28:58.85115	-0.022	-0.047	0.697
0:28:58.8512 	-0.023	-0.055	0.697
0:28:58.85125	-0.024	-0.028	0.697
0:28:58.8513 	-0.026	-0.026	0.697
0:28:58.85135	-0.026	-0.055	0.697
0:28:58.8514 	-0.027	-0.015	0.697
0:28:58.85145	-0.028	-0.068	0.697
0:28:58.8515 	-0.028	-0.054	0.697
0:28:58.85155	-0.029	-0.013	0.697
0:28:58.8516 	-0.030	-0.034	0.697
0:28:58.85165	-0.030	-0.082	0.698
0:28:58.8517 	-0.031	-0.060	0.698
0:28:58.85175	-0.032	-0.008	0.697
0:28:58.8518 	-0.033	-0.025	0.698
0:28:58.85185	-0.033	-0.020	0.698
0:28:58.8519 	-0.033	-0.067	0.698
0:28:58.85195	-0.035	0.001 	0.698
0:28:58.852  	-0.035	-0.050	0.698
0:28:58.85205	-0.035	-0.034	0.698
0:28:58.8521 	-0.036	-0.059	0.698
0:28:58.85215	-0.036	-0.038	0.698
0:28:58.8522 	-0.037	-0.034	0.698
0:28:58.85225	-0.037	-0.052	0.698
0:28:58.8523 	-0.037	-0.006	0.698
0:28:58.85235	-0.038	-0.040	0.698
0:28:58.8524 	-0.038	-0.014	0.698
0:28:58.85245	-0.037	-0.053	0.698
0:28:58.8525 	-0.038	-0.021	0.698
0:28:58.85255	-0.038	-0.024	0.698
0:28:58.8526 	-0.039	-0.065	0.698
0:28:58.85265	-0.039	-0.058	0.698
0:28:58.8527 	-0.039	-0.029	0.698
0:28:58.85275	-0.039	-0.045	0.698
0:28:58.8528 	-0.039	-0.027	0.698
0:28:58.85285	-0.040	-0.054	0.699
0:28:58.8529 	-0.040	-0.014	0.699
0:28:58.85295	-0.040	-0.080	0.699
0:28:58.853  	-0.040	-0.040	0.698
0:28:58.85305	-0.040	-0.023	0.699
0:28:58.8531 	-0.040	-0.077	0.699
0:28:58.85315	-0.040	-0.013	0.699
0:28:58.8532 	-0.041	-0.058	0.699
0:28:58.85325	-0.041	-0.033	0.699
0:28:58.8533 	-0.041	0.003 	0.699
0:28:58.85335	-0.041	-0.043	0.699
0:28:58.8534 	-0.041	-0.043	0.699
0:28:58.85345	-0.041	-0.042	0.699
0:28:58.8535 	-0.041	-0.031	0.699
0:28:58.85355	-0.040	-0.072	0.699
0:28:58.8536 	-0.041	-0.050	0.699
0:28:58.85365	-0.041	-0.029	0.699
0:28:58.8537 	-0.041	-0.070	0.699
0:28:58.85375	-0.040	-0.024	0.699
0:28:58.8538 	-0.041	-0.003	0.699
0:28:58.85385	-0.041	-0.043	0.699
0:28:58.8539 	-0.041	-0.009	0.699
0:28:58.85395	-0.041	-0.036	0.699
0:28:58.854  	-0.041	-0.096	0.699
0:28:58.85405	-0.040	-0.051	0.699
0:28:58.8541 	-0.040	-0.012	0.700
0:28:58.85415	-0.040	-0.034	0.700
0:28:58.8542 	-0.040	-0.033	0.700
0:28:58.85425	-0.040	-0.025	0.699
0:28:58.8543 	-0.040	-0.009	0.700
0:28:58.85435	-0.040	-0.040	0.700
0:28:58.8544 	-0.040	-0.047	0.700
0:28:58.85445	-0.040	-0.017	0.700
0:28:58.8545 	-0.039	-0.032	0.700
0:28:58.85455	-0.040	-0.026	0.700
0:28:58.8546 	-0.039	0.008 	0.700
0:28:58.85465	-0.039	-0.015	0.700
0:28:58.8547 	-0.039	-0.008	0.700
0:28:58.85475	-0.039	-0.028	0.700
0:28:58.8548 	-0.039	-0.021	0.700
0:28:58.85485	-0.039	0.000 	0.700
0:28:58.8549 	-0.039	-0.021	0.700
0:28:58.85495	-0.039	-0.058	0.700
0:28:58.855  	-0.039	-0.034	0.700
0:28:58.85505	-0.039	-0.064	0.700
0:28:58.8551 	-0.039	-0.029	0.700
0:28:58.85515	-0.038	-0.042	0.700
0:28:58.8552 	-0.039	-0.008	0.700
0:28:58.85525	-0.038	-0.018	0.700
0:28:58.8553 	-0.038	-0.008	0.700
0:28:58.85535	-0.038	-0.002	0.700
0:28:58.8554 	-0.038	-0.045	0.700
0:28:58.85545	-0.038	-0.008	0.700
0:28:58.8555 	-0.039	-0.013	0.700
0:28:58.85555	-0.039	0.009 	0.700
0:28:58.8556 	-0.038	-0.011	0.700
0:28:58.85565	-0.038	-0.068	0.700
0:28:58.8557 	-0.039	-0.033	0.700
0:28:58.85575	-0.039	-0.051	0.700
0:28:58.8558 	-0.039	-0.004	0.700
0:28:58.85585	-0.039	-0.040	0.700
0:28:58.8559 	-0.039	-0.026	0.700
0:28:58.85595	-0.039	-0.027	0.700
0:28:58.856  	-0.039	-0.038	0.700
0:28:58.85605	-0.039	-0.035	0.700
0:28:58.8561 	-0.040	-0.048	0.700
0:28:58.85615	-0.040	-0.011	0.700
0:28:58.8562 	-0.040	-0.074	0.700
0:28:58.85625	-0.040	-0.061	0.700
0:28:58.8563 	-0.041	-0.086	0.700
0:28:58.85635	-0.040	-0.070	0.700
0:28:58.8564 	-0.041	-0.049	0.700
0:28:58.85645	-0.040	-0.066	0.700
0:28:58.8565 	-0.040	-0.038	0.700
0:28:58.85655	-0.040	-0.025	0.700
0:28:58.8566 	-0.040	-0.031	0.700
0:28:58.85665	-0.040	-0.043	0.700
0:28:58.8567 	-0.040	-0.039	0.700
0:28:58.85675	-0.040	-0.018	0.700
0:28:58.8568 	-0.040	0.001 	0.700
0:28:58.85685	-0.040	-0.051	0.700
0:28:58.8569 	-0.040	-0.063	0.700
0:28:58.85695	-0.039	-0.049	0.700
0:28:58.857  	-0.039	-0.021	0.700
0:28:58.85705	-0.038	-0.054	0.700
0:28:58.8571 	-0.038	-0.041	0.700
0:28:58.85715	-0.038	-0.064	0.700
0:28:58.8572 	-0.036	-0.025	0.700
0:28:58.85725	-0.035	-0.038	0.700
0:28:58.8573 	-0.035	-0.037	0.700
0:28:58.85735	-0.034	-0.043	0.700
0:28:58.8574 	-0.033	-0.052	0.700
0:28:58.85745	-0.032	-0.045	0.700
0:28:58.8575 	-0.031	-0.030	0.699
0:28:58.85755	-0.031	-0.065	0.700
0:28:58.8576 	-0.029	-0.002	0.700
0:28:58.85765	-0.028	-0.018	0.700
0:28:58.8577 	-0.027	-0.019	0.700
0:28:58.85775	-0.026	-0.033	0.700
0:28:58.8578 	-0.026	0.004 	0.700
0:28:58.85785	-0.024	-0.040	0.700
0:28:58.8579 	-0.024	-0.078	0.700
0:28:58.85795	-0.022	-0.031	0.700
0:28:58.858  	-0.022	-0.039	0.700
0:28:58.85805	-0.021	-0.078	0.699
0:28:58.8581 	-0.020	-0.035	0.699
0:28:58.85815	-0.019	-0.051	0.699
0:28:58.8582 	-0.018	-0.035	0.699
0:28:58.85825	-0.018	-0.082	0.700
0:28:58.8583 	-0.018	-0.052	0.699
0:28:58.85835	-0.017	-0.075	0.699
0:28:58.8584 	-0.016	-0.040	0.699
0:28:58.85845	-0.016	-0.029	0.699
0:28:58.8585 	-0.015	-0.055	0.699
0:28:58.85855	-0.015	-0.050	0.699
0:28:58.8586 	-0.014	-0.036	0.699
0:28:58.85865	-0.014	-0.039	0.699
0:28:58.8587 	-0.013	-0.080	0.699
0:28:58.85875	-0.012	-0.046	0.699
0:28:58.8588 	-0.011	-0.048	0.699
0:28:58.85885	-0.012	-0.086	0.699
0:28:58.8589 	-0.012	-0.067	0.699
0:28:58.85895	-0.012	-0.034	0.698
0:28:58.859  	-0.012	-0.039	0.699
0:28:58.85905	-0.013	-0.078	0.699
0:28:58.8591 	-0.013	-0.023	0.699
0:28:58.85915	-0.013	-0.065	0.699
0:28:58.8592 	-0.014	-0.025	0.698
0:28:58.85925	-0.015	-0.033	0.699
0:28:58.8593 	-0.016	-0.026	0.699
0:28:58.85935	-0.018	-0.042	0.699
0:28:58.8594 	-0.018	-0.044	0.698
0:28:58.85945	-0.019	-0.059	0.698
0:28:58.8595 	-0.020	-0.030	0.698
0:28:58.85955	-0.021	-0.020	0.698
0:28:58.8596 	-0.022	-0.024	0.698
0:28:58.85965	-0.023	-0.057	0.698
0:28:58.8597 	-0.024	-0.011	0.698
0:28:58.85975	-0.024	-0.041	0.698
0:28:58.8598 	-0.025	-0.070	0.698
0:28:58.85985	-0.026	-0.007	0.698
0:28:58.8599 	-0.026	-0.028	0.698
0:28:58.85995	-0.027	-0.041	0.698
0:28:58.86   	-0.027	-0.033	0.698
0:28:58.86005	-0.028	0.003 	0.698
0:28:58.8601 	-0.029	-0.062	0.698
0:28:58.86015	-0.030	-0.035	0.698
0:28:58.8602 	-0.030	-0.029	0.698
0:28:58.86025	-0.031	-0.024	0.698
0:28:58.8603 	-0.031	-0.054	0.698
0:28:58.86035	-0.031	-0.042	0.698
0:28:58.8604 	-0.032	-0.028	0.697
0:28:58.86045	-0.032	-0.049	0.698
0:28:58.8605 	-0.033	-0.038	0.698
0:28:58.86055	-0.033	-0.018	0.698
0:28:58.8606 	-0.034	-0.032	0.698
0:28:58.86065	-0.033	-0.029	0.697
0:28:58.8607 	-0.034	-0.009	0.698
0:28:58.86075	-0.034	-0.040	0.697
0:28:58.8608 	-0.035	-0.078	0.698
0:28:58.86085	-0.034	-0.027	0.697
0:28:58.8609 	-0.035	-0.039	0.697
0:28:58.86095	-0.035	-0.012	0.697
0:28:58.861  	-0.035	-0.049	0.697
0:28:58.86105	-0.035	-0.037	0.697
0:28:58.8611 	-0.035	-0.024	0.697
0:28:58.86115	-0.036	-0.023	0.697
0:28:58.8612 	-0.036	-0.044	0.697
0:28:58.86125	-0.036	-0.040	0.697
0:28:58.8613 	-0.036	-0.084	0.697
0:28:58.86135	-0.037	-0.037	0.697
0:28:58.8614 	-0.036	-0.045	0.696
0:28:58.86145	-0.037	0.005 	0.697
0:28:58.8615 	-0.037	-0.049	0.697
0:28:58.86155	-0.037	-0.045	0.696
0:28:58.8616 	-0.037	-0.046	0.696
0:28:58.86165	-0.037	-0.057	0.696
0:28:58.8617 	-0.038	-0.032	0.696
0:28:58.86175	-0.038	-0.032	0.696
0:28:58.8618 	-0.038	-0.077	0.696
0:28:58.86185	-0.038	-0.049	0.697
0:28:58.8619 	-0.039	-0.025	0.696
0:28:58.86195	-0.039	-0.028	0.696
0:28:58.862  	-0.039	-0.030	0.696
0:28:58.86205	-0.040	-0.033	0.696
0:28:58.8621 	-0.040	-0.068	0.696
0:28:58.86215	-0.039	-0.075	0.696
0:28:58.8622 	-0.040	-0.013	0.696
0:28:58.86225	-0.041	-0.038	0.696
0:28:58.8623 	-0.041	-0.038	0.696
0:28:58.86235	-0.040	-0.067	0.696
0:28:58.8624 	-0.041	-0.021	0.696
0:28:58.86245	-0.041	-0.050	0.696
0:28:58.8625 	-0.041	-0.024	0.696
0:28:58.86255	-0.042	-0.071	0.696
0:28:58.8626 	-0.042	-0.040	0.696
0:28:58.86265	-0.042	-0.035	0.696
0:28:58.8627 	-0.042	-0.046	0.696
0:28:58.86275	-0.042	-0.037	0.696
0:28:58.8628 	-0.043	-0.021	0.696
0:28:58.86285	-0.042	-0.065	0.696
0:28:58.8629 	-0.043	-0.052	0.696
0:28:58.86295	-0.043	-0.017	0.696
0:28:58.863  	-0.043	-0.020	0.695
0:28:58.86305	-0.043	-0.045	0.695
0:28:58.8631 	-0.043	-0.028	0.696
0:28:58.86315	-0.044	-0.022	0.695
0:28:58.8632 	-0.043	-0.045	0.695
0:28:58.86325	-0.043	0.000 	0.695
0:28:58.8633 	-0.043	-0.021	0.695
0:28:58.86335	-0.044	-0.062	0.695
0:28:58.8634 	-0.044	-0.082	0.695
0:28:58.86345	-0.043	-0.034	0.695
0:28:58.8635 	-0.043	-0.046	0.695
0:28:58.86355	-0.043	-0.069	0.696
0:28:58.8636 	-0.043	-0.038	0.695
0:28:58.86365	-0.043	-0.030	0.695
0:28:58.8637 	-0.043	-0.008	0.696
0:28:58.86375	-0.043	-0.071	0.695
0:28:58.8638 	-0.043	-0.029	0.695
0:28:58.86385	-0.043	-0.012	0.695
0:28:58.8639 	-0.043	-0.071	0.695
0:28:58.86395	-0.043	-0.056	0.695
0:28:58.864  	-0.042	-0.066	0.695
0:28:58.86405	-0.042	0.000 	0.695
0:28:58.8641 	-0.042	-0.071	0.695
0:28:58.86415	-0.041	-0.022	0.695
0:28:58.8642 	-0.041	-0.028	0.695
0:28:58.86425	-0.042	-0.073	0.695
0:28:58.8643 	-0.041	-0.033	0.696
0:28:58.86435	-0.041	-0.083	0.696
0:28:58.8644 	-0.042	-0.044	0.695
0:28:58.86445	-0.041	0.011 	0.695
0:28:58.8645 	-0.040	-0.043	0.695
0:28:58.86455	-0.040	-0.036	0.695
0:28:58.8646 	-0.041	-0.039	0.695
0:28:58.86465	-0.040	-0.061	0.695
0:28:58.8647 	-0.039	-0.028	0.695
0:28:58.86475	-0.039	-0.091	0.695
0:28:58.8648 	-0.039	-0.063	0.695
0:28:58.86485	-0.039	-0.036	0.695
0:28:58.8649 	-0.039	-0.057	0.695
0:28:58.86495	-0.038	-0.065	0.696
0:28:58.865  	-0.038	-0.066	0.695
0:28:58.86505	-0.038	-0.013	0.695
0:28:58.8651 	-0.038	-0.030	0.695
0:28:58.86515	-0.037	-0.007	0.695
0:28:58.8652 	-0.037	-0.028	0.695
0:28:58.86525	-0.036	-0.012	0.695
0:28:58.8653 	-0.036	-0.034	0.695
0:28:58.86535	-0.036	-0.052	0.695
0:28:58.8654 	-0.035	-0.057	0.695
0:28:58.86545	-0.035	-0.055	0.695
0:28:58.8655 	-0.035	-0.066	0.695
0:28:58.86555	-0.034	-0.070	0.695
0:28:58.8656 	-0.033	-0.097	0.696
0:28:58.86565	-0.032	-0.041	0.695
0:28:58.8657 	-0.031	-0.052	0.695
0:28:58.86575	-0.031	-0.113	0.695
0:28:58.8658 	-0.030	-0.086	0.696
0:28:58.86585	-0.029	-0.040	0.695
0:28:58.8659 	-0.028	-0.053	0.695
0:28:58.86595	-0.027	-0.036	0.696
0:28:58.866  	-0.026	-0.046	0.695
0:28:58.86605	-0.025	-0.065	0.696
0:28:58.8661 	-0.024	-0.018	0.696
0:28:58.86615	-0.023	-0.025	0.696
0:28:58.8662 	-0.022	-0.055	0.696
0:28:58.86625	-0.022	-0.087	0.696
0:28:58.8663 	-0.021	-0.062	0.695
0:28:58.86635	-0.021	-0.031	0.696
0:28:58.8664 	-0.019	-0.051	0.696
0:28:58.86645	-0.019	-0.052	0.696
0:28:58.8665 	-0.018	-0.037	0.696
0:28:58.86655	-0.018	-0.055	0.696
0:28:58.8666 	-0.018	-0.047	0.696
0:28:58.86665	-0.016	-0.056	0.696
0:28:58.8667 	-0.016	-0.026	0.696
0:28:58.86675	-0.015	-0.078	0.696
0:28:58.8668 	-0.016	-0.048	0.696
0:28:58.86685	-0.015	-0.045	0.696
0:28:58.8669 	-0.014	-0.052	0.696
0:28:58.86695	-0.013	-0.082	0.696
0:28:58.867  	-0.013	-0.064	0.696
0:28:58.86705	-0.013	-0.054	0.696
0:28:58.8671 	-0.013	-0.052	0.696
0:28:58.86715	-0.013	-0.071	0.696
0:28:58.8672 	-0.012	-0.036	0.696
0:28:58.86725	-0.013	-0.058	0.697
0:28:58.8673 	-0.012	-0.008	0.696
0:28:58.86735	-0.012	-0.044	0.697
0:28:58.8674 	-0.012	-0.056	0.697
0:28:58.86745	-0.013	-0.063	0.697
0:28:58.8675 	-0.014	-0.037	0.697
0:28:58.86755	-0.014	-0.045	0.697
0:28:58.8676 	-0.016	-0.058	0.697
0:28:58.86765	-0.017	-0.051	0.697
0:28:58.8677 	-0.018	-0.023	0.697
0:28:58.86775	-0.020	-0.038	0.697
0:28:58.8678 	-0.021	-0.059	0.697
0:28:58.86785	-0.022	-0.051	0.697
0:28:58.8679 	-0.023	-0.045	0.697
0:28:58.86795	-0.024	-0.014	0.697
0:28:58.868  	-0.025	-0.079	0.697
0:28:58.86805	-0.026	-0.066	0.697
0:28:58.8681 	-0.027	-0.057	0.697
0:28:58.86815	-0.028	-0.060	0.697
0:28:58.8682 	-0.028	-0.049	0.697
0:28:58.86825	-0.029	-0.077	0.697
0:28:58.8683 	-0.029	-0.051	0.697
0:28:58.86835	-0.030	-0.046	0.697
0:28:58.8684 	-0.030	-0.019	0.697
0:28:58.86845	-0.031	-0.021	0.697
0:28:58.8685 	-0.031	-0.048	0.698
0:28:58.86855	-0.032	-0.067	0.698
0:28:58.8686 	-0.033	-0.026	0.698
0:28:58.86865	-0.033	-0.074	0.698
0:28:58.8687 	-0.034	-0.097	0.698
0:28:58.86875	-0.035	-0.056	0.698
0:28:58.8688 	-0.035	-0.054	0.698
0:28:58.86885	-0.036	-0.010	0.698
0:28:58.8689 	-0.035	-0.040	0.698
0:28:58.86895	-0.036	-0.025	0.698
0:28:58.869  	-0.037	-0.072	0.698
0:28:58.86905	-0.037	-0.052	0.698
0:28:58.8691 	-0.037	-0.043	0.698
0:28:58.86915	-0.038	-0.065	0.698
0:28:58.8692 	-0.038	-0.045	0.698
0:28:58.86925	-0.038	-0.045	0.698
0:28:58.8693 	-0.038	-0.041	0.698
0:28:58.86935	-0.038	-0.012	0.698
0:28:58.8694 	-0.039	-0.051	0.698
0:28:58.86945	-0.040	-0.028	0.698
0:28:58.8695 	-0.040	-0.058	0.698
0:28:58.86955	-0.040	-0.053	0.698
0:28:58.8696 	-0.040	-0.050	0.699
0:28:58.86965	-0.040	-0.057	0.698
0:28:58.8697 	-0.040	-0.060	0.699
0:28:58.86975	-0.040	-0.064	0.699
0:28:58.8698 	-0.040	-0.018	0.699
0:28:58.86985	-0.040	-0.056	0.698
0:28:58.8699 	-0.041	-0.025	0.699
0:28:58.86995	-0.041	-0.048	0.698
0:28:58.87   	-0.041	-0.063	0.699
0:28:58.87005	-0.040	-0.030	0.699
0:28:58.8701 	-0.041	-0.039	0.699
0:28:58.87015	-0.041	-0.046	0.699
0:28:58.8702 	-0.041	-0.061	0.699
0:28:58.87025	-0.041	-0.038	0.699
0:28:58.8703 	-0.040	-0.022	0.699
0:28:58.87035	-0.041	-0.005	0.699
0:28:58.8704 	-0.041	-0.053	0.699
0:28:58.87045	-0.041	-0.065	0.699
0:28:58.8705 	-0.040	-0.021	0.699
0:28:58.87055	-0.040	-0.060	0.699
0:28:58.8706 	-0.040	-0.007	0.699
0:28:58.87065	-0.040	-0.021	0.699
0:28:58.8707 	-0.039	-0.043	0.700
0:28:58.87075	-0.040	-0.044	0.699
0:28:58.8708 	-0.039	-0.053	0.700
0:28:58.87085	-0.039	-0.034	0.699
0:28:58.8709 	-0.040	-0.043	0.699
0:28:58.87095	-0.039	-0.040	0.699
0:28:58.871  	-0.039	-0.071	0.699
0:28:58.87105	-0.040	-0.036	0.699
0:28:58.8711 	-0.039	-0.054	0.700
0:28:58.87115	-0.039	-0.008	0.699
0:28:58.8712 	-0.039	-0.039	0.700
0:28:58.87125	-0.039	-0.055	0.700
0:28:58.8713 	-0.039	-0.035	0.700
0:28:58.87135	-0.039	-0.036	0.699
0:28:58.8714 	-0.039	-0.067	0.700
0:28:58.87145	-0.038	-0.060	0.699
0:28:58.8715 	-0.039	-0.027	0.700
0:28:58.87155	-0.038	-0.049	0.700
0:28:58.8716 	-0.038	-0.068	0.700
0:28:58.87165	-0.038	-0.043	0.700
0:28:58.8717 	-0.038	-0.058	0.700
0:28:58.87175	-0.038	-0.034	0.700
0:28:58.8718 	-0.038	-0.074	0.700
0:28:58.87185	-0.038	-0.065	0.700
0:28:58.8719 	-0.038	-0.061	0.700
0:28:58.87195	-0.038	-0.042	0.700
0:28:58.872  	-0.038	-0.043	0.700
0:28:58.87205	-0.037	-0.032	0.699
0:28:58.8721 	-0.038	-0.012	0.700
0:28:58.87215	-0.037	-0.054	0.700
0:28:58.8722 	-0.038	-0.025	0.700
